   20.000000000000000        100.62792484910669     
   70.000000000000000        1446.2608054918392     
   130.00000000000000        5115.8529666924323     
   190.00000000000000        11896.340727874282     
   250.00000000000000        21955.985732312045     
   305.00000000000000        32928.367795341474     
   355.00000000000000        46162.313480080971     
   410.00000000000000        64881.011911294707     
   467.50000000000000        83654.378133506601     
   520.00000000000000        101681.08709158131     
   581.00000000000000        125254.44246454355     
   642.00000000000000        130602.95161128741     
   693.50000000000000        135273.86777278638     
   760.00000000000000        158049.73642271134     
   837.50000000000000        180370.06162421303     
   907.50000000000000        197512.10700882543     
   970.00000000000000        211466.73710373207     
   1032.5000000000000        224659.14670913157     
   1086.5000000000000        232321.74847108964     
   1154.0000000000000        246144.75963957605     
   1237.5000000000000        254319.33124284359     
   1312.5000000000000        259416.62357975362     
   1400.0000000000000        264419.95411623048     
   1500.0000000000000        266792.35992874525     
   1600.0000000000000        268708.74189134419     
   1700.0000000000000        269818.34292642726     
   1800.0000000000000        270948.15425964660     
   1900.0000000000000        272032.57602321281     
   2000.0000000000000        272932.10703563027     
   2125.0000000000000        273819.56792011589     
   2298.5000000000000        274040.01895608252     
   2445.5000000000000        274200.80527199642     
   2645.0000000000000        274454.79344476201     
   2941.5000000000000        274515.41979424184     
   3256.0000000000000        274533.50595406990     
   3592.5000000000000        274534.39880570141     
   3895.0000000000000        274534.76867177046     
   4285.0000000000000        274535.14155153144     
   4745.0000000000000        274535.18010726682     
   5160.0000000000000        274535.18372637482     
   5647.5000000000000        274535.18441326392     
   6157.5000000000000        274535.18448235828     
   6690.0000000000000        274535.18448875629     
   7320.0000000000000        274535.18448894756     
   7982.5000000000000        274535.18448896549     
   8582.5000000000000        274535.18448896619     
   9100.0000000000000        274535.18448896625     
   9500.0000000000000        274535.18448896625     
   10025.000000000000        274535.18448896625     
   10810.000000000000        274535.18448896625     
   11545.000000000000        274535.18448896625     
   12330.000000000000        274535.18448896625     
   13045.000000000000        274535.18448896625     
   13885.000000000000        274535.18448896625     
   14735.000000000000        274535.18448896625     
   20.000000000000000        100.62115063310931     
   70.000000000000000        1446.0431010362759     
   130.00000000000000        5114.9780269471239     
   190.00000000000000        11893.740156522883     
   250.00000000000000        21950.610000617842     
   305.00000000000000        32919.697692342648     
   355.00000000000000        46150.262574147360     
   410.00000000000000        64866.971629563275     
   467.50000000000000        83639.945970969158     
   520.00000000000000        101668.31730491311     
   581.00000000000000        125243.33942015689     
   642.00000000000000        130590.65615385692     
   693.50000000000000        135260.31468268545     
   760.00000000000000        158043.68317844812     
   837.50000000000000        180377.68852300034     
   907.50000000000000        197531.34287700144     
   970.00000000000000        211496.08813259058     
   1032.5000000000000        224698.67885844538     
   1086.5000000000000        232367.39282092568     
   1154.0000000000000        246201.82943931577     
   1237.5000000000000        254382.51417293958     
   1312.5000000000000        259481.76932431321     
   1400.0000000000000        264483.30078421748     
   1500.0000000000000        266852.73300088377     
   1600.0000000000000        268767.09011171537     
   1700.0000000000000        269875.06602863828     
   1800.0000000000000        271004.03178897029     
   1900.0000000000000        272088.80519853381     
   2000.0000000000000        272989.26966535626     
   2125.0000000000000        273878.01432093530     
   2298.5000000000000        274098.73151357175     
   2445.5000000000000        274259.78951995261     
   2645.0000000000000        274514.28715062066     
   2941.5000000000000        274575.03011050064     
   3256.0000000000000        274593.14390717278     
   3592.5000000000000        274594.03589408472     
   3895.0000000000000        274594.40539496386     
   4285.0000000000000        274594.77943422529     
   4745.0000000000000        274594.81812726252     
   5160.0000000000000        274594.82175497880     
   5647.5000000000000        274594.82244430704     
   6157.5000000000000        274594.82251372584     
   6690.0000000000000        274594.82252015319     
   7320.0000000000000        274594.82252034498     
   7982.5000000000000        274594.82252036303     
   8582.5000000000000        274594.82252036378     
   9100.0000000000000        274594.82252036384     
   9500.0000000000000        274594.82252036384     
   10025.000000000000        274594.82252036384     
   10810.000000000000        274594.82252036384     
   11545.000000000000        274594.82252036384     
   12330.000000000000        274594.82252036384     
   13045.000000000000        274594.82252036384     
   13885.000000000000        274594.82252036384     
   14735.000000000000        274594.82252036384     
   20.000000000000000        100.61336828660643     
   70.000000000000000        1445.7912854532692     
   130.00000000000000        5113.9199461655589     
   190.00000000000000        11890.755772889828     
   250.00000000000000        21943.698325648122     
   305.00000000000000        32908.958794490354     
   355.00000000000000        46135.574093221920     
   410.00000000000000        64849.746127125167     
   467.50000000000000        83622.029538585790     
   520.00000000000000        101652.01994701585     
   581.00000000000000        125228.38380240959     
   642.00000000000000        130574.07541171755     
   693.50000000000000        135241.99347309169     
   760.00000000000000        158032.85944743940     
   837.50000000000000        180380.99283043898     
   907.50000000000000        197546.63104152668     
   970.00000000000000        211521.82273508923     
   1032.5000000000000        224734.92538789549     
   1086.5000000000000        232409.94991730814     
   1154.0000000000000        246256.15439421037     
   1237.5000000000000        254442.69542995558     
   1312.5000000000000        259544.00263785952     
   1400.0000000000000        264543.20520826621     
   1500.0000000000000        266909.23576068325     
   1600.0000000000000        268821.27769503335     
   1700.0000000000000        269927.40827042295     
   1800.0000000000000        271055.40202348662     
   1900.0000000000000        272140.50588517630     
   2000.0000000000000        273041.92708144506     
   2125.0000000000000        273931.99515308090     
   2298.5000000000000        274152.98431199329     
   2445.5000000000000        274314.32110888290     
   2645.0000000000000        274569.34460110543     
   2941.5000000000000        274630.20732557093     
   3256.0000000000000        274648.34922600084     
   3592.5000000000000        274649.24019359134     
   3895.0000000000000        274649.60926634009     
   4285.0000000000000        274649.98450300179     
   4745.0000000000000        274650.02333811123     
   5160.0000000000000        274650.02697463450     
   5647.5000000000000        274650.02766648115     
   6157.5000000000000        274650.02773623611     
   6690.0000000000000        274650.02774269390     
   7320.0000000000000        274650.02774288622     
   7982.5000000000000        274650.02774290432     
   8582.5000000000000        274650.02774290508     
   9100.0000000000000        274650.02774290513     
   9500.0000000000000        274650.02774290513     
   10025.000000000000        274650.02774290513     
   10810.000000000000        274650.02774290513     
   11545.000000000000        274650.02774290513     
   12330.000000000000        274650.02774290513     
   13045.000000000000        274650.02774290513     
   13885.000000000000        274650.02774290513     
   14735.000000000000        274650.02774290513     
   20.000000000000000        100.60432457603997     
   70.000000000000000        1445.4939121203447     
   130.00000000000000        5112.7368655161590     
   190.00000000000000        11887.084681519334     
   250.00000000000000        21937.033303440530     
   305.00000000000000        32898.427140950487     
   355.00000000000000        46121.009427712997     
   410.00000000000000        64832.658015816131     
   467.50000000000000        83604.268646324912     
   520.00000000000000        101636.15106236690     
   581.00000000000000        125213.67708624565     
   642.00000000000000        130557.52339108472     
   693.50000000000000        135223.56568591556     
   760.00000000000000        158020.80197127617     
   837.50000000000000        180381.27214714658     
   907.50000000000000        197557.31622122703     
   970.00000000000000        211541.57110612700     
   1032.5000000000000        224763.77533089233     
   1086.5000000000000        232444.29026056695     
   1154.0000000000000        246300.74382803997     
   1237.5000000000000        254492.51458031457     
   1312.5000000000000        259595.62186323371     
   1400.0000000000000        264592.51850464928     
   1500.0000000000000        266954.93998218630     
   1600.0000000000000        268864.53624172573     
   1700.0000000000000        269968.71626337792     
   1800.0000000000000        271095.70507072459     
   1900.0000000000000        272181.16456394398     
   2000.0000000000000        273083.45950768201     
   2125.0000000000000        273974.68474440719     
   2298.5000000000000        274195.90529239667     
   2445.5000000000000        274357.48022887117     
   2645.0000000000000        274612.95729351218     
   2941.5000000000000        274673.92558320664     
   3256.0000000000000        274692.09403524036     
   3592.5000000000000        274692.98398605455     
   3895.0000000000000        274693.35264014790     
   4285.0000000000000        274693.72892026143     
   4745.0000000000000        274693.76787824091     
   5160.0000000000000        274693.77152300411     
   5647.5000000000000        274693.77221709030     
   6157.5000000000000        274693.77228713559     
   6690.0000000000000        274693.77229362039     
   7320.0000000000000        274693.77229381329     
   7982.5000000000000        274693.77229383151     
   8582.5000000000000        274693.77229383227     
   9100.0000000000000        274693.77229383233     
   9500.0000000000000        274693.77229383233     
   10025.000000000000        274693.77229383233     
   10810.000000000000        274693.77229383233     
   11545.000000000000        274693.77229383233     
   12330.000000000000        274693.77229383233     
   13045.000000000000        274693.77229383233     
   13885.000000000000        274693.77229383233     
   14735.000000000000        274693.77229383233     
   20.000000000000000        100.59820688402918     
   70.000000000000000        1445.2813514497241     
   130.00000000000000        5111.7645401146428     
   190.00000000000000        11884.616266197296     
   250.00000000000000        21931.818213552604     
   305.00000000000000        32890.878456035964     
   355.00000000000000        46110.656952641184     
   410.00000000000000        64820.408384016773     
   467.50000000000000        83591.298937938263     
   520.00000000000000        101622.79622231881     
   581.00000000000000        125199.41973596560     
   642.00000000000000        130541.66259668682     
   693.50000000000000        135206.12288901256     
   760.00000000000000        158004.82468895332     
   837.50000000000000        180369.68251330638     
   907.50000000000000        197549.47321059968     
   970.00000000000000        211536.96825000446     
   1032.5000000000000        224762.47892834526     
   1086.5000000000000        232444.96594283491     
   1154.0000000000000        246305.08928140273     
   1237.5000000000000        254498.44811180106     
   1312.5000000000000        259601.77081185504     
   1400.0000000000000        264596.83648367337     
   1500.0000000000000        266956.95687495946     
   1600.0000000000000        268864.98074266157     
   1700.0000000000000        269967.92969495989     
   1800.0000000000000        271094.23260771524     
   1900.0000000000000        272179.65391950484     
   2000.0000000000000        273082.20893715031     
   2125.0000000000000        273973.83563102031     
   2298.5000000000000        274195.12695016398     
   2445.5000000000000        274356.78347300424     
   2645.0000000000000        274612.42612336826     
   2941.5000000000000        274673.43009844498     
   3256.0000000000000        274691.60580265167     
   3592.5000000000000        274692.49493726279     
   3895.0000000000000        274692.86325788143     
   4285.0000000000000        274693.23991149024     
   4745.0000000000000        274693.27891424665     
   5160.0000000000000        274693.28256125015     
   5647.5000000000000        274693.28325608722     
   6157.5000000000000        274693.28332623903     
   6690.0000000000000        274693.28333273320     
   7320.0000000000000        274693.28333292622     
   7982.5000000000000        274693.28333294450     
   8582.5000000000000        274693.28333294526     
   9100.0000000000000        274693.28333294531     
   9500.0000000000000        274693.28333294531     
   10025.000000000000        274693.28333294531     
   10810.000000000000        274693.28333294531     
   11545.000000000000        274693.28333294531     
   12330.000000000000        274693.28333294531     
   13045.000000000000        274693.28333294531     
   13885.000000000000        274693.28333294531     
   14735.000000000000        274693.28333294531     
   20.000000000000000        100.59173113971721     
   70.000000000000000        1445.1231013361046     
   130.00000000000000        5111.0948319167246     
   190.00000000000000        11882.681362466272     
   250.00000000000000        21927.561049626685     
   305.00000000000000        32885.032107594554     
   355.00000000000000        46102.520959930960     
   410.00000000000000        64810.060817153288     
   467.50000000000000        83578.801132953085     
   520.00000000000000        101609.28234286238     
   581.00000000000000        125184.02819742064     
   642.00000000000000        130524.80668812679     
   693.50000000000000        135187.81706701752     
   760.00000000000000        157985.61792808748     
   837.50000000000000        180351.06294231708     
   907.50000000000000        197531.40842847279     
   970.00000000000000        211519.42564488057     
   1032.5000000000000        224745.45383817240     
   1086.5000000000000        232428.24054475164     
   1154.0000000000000        246288.81564143358     
   1237.5000000000000        254482.04162890223     
   1312.5000000000000        259584.82824875470     
   1400.0000000000000        264578.14015063894     
   1500.0000000000000        266936.47708323394     
   1600.0000000000000        268843.23824261839     
   1700.0000000000000        269945.24046770128     
   1800.0000000000000        271070.94343699206     
   1900.0000000000000        272156.14731678751     
   2000.0000000000000        273058.67695923749     
   2125.0000000000000        273950.34471258876     
   2298.5000000000000        274171.62801190739     
   2445.5000000000000        274333.29023124924     
   2645.0000000000000        274588.95931481989     
   2941.5000000000000        274649.96579205280     
   3256.0000000000000        274668.13993021409     
   3592.5000000000000        274669.02828083426     
   3895.0000000000000        274669.39627313154     
   4285.0000000000000        274669.77297875029     
   4745.0000000000000        274669.81198850897     
   5160.0000000000000        274669.81563497550     
   5647.5000000000000        274669.81632985495     
   6157.5000000000000        274669.81640002417     
   6690.0000000000000        274669.81640651944     
   7320.0000000000000        274669.81640671240     
   7982.5000000000000        274669.81640673068     
   8582.5000000000000        274669.81640673144     
   9100.0000000000000        274669.81640673149     
   9500.0000000000000        274669.81640673149     
   10025.000000000000        274669.81640673149     
   10810.000000000000        274669.81640673149     
   11545.000000000000        274669.81640673149     
   12330.000000000000        274669.81640673149     
   13045.000000000000        274669.81640673149     
   13885.000000000000        274669.81640673149     
   14735.000000000000        274669.81640673149     
   20.000000000000000        100.58625465281106     
   70.000000000000000        1444.9829788512668     
   130.00000000000000        5110.5210900273505     
   190.00000000000000        11880.867272835654     
   250.00000000000000        21925.163085998654     
   305.00000000000000        32880.387360429188     
   355.00000000000000        46096.189294618591     
   410.00000000000000        64801.895576895717     
   467.50000000000000        83568.433705164367     
   520.00000000000000        101597.46420485141     
   581.00000000000000        125169.62824057351     
   642.00000000000000        130509.03673704519     
   693.50000000000000        135170.73337894378     
   760.00000000000000        157966.47009683840     
   837.50000000000000        180330.73067440349     
   907.50000000000000        197510.10217950845     
   970.00000000000000        211497.26366236157     
   1032.5000000000000        224722.42517795216     
   1086.5000000000000        232404.66852125875     
   1154.0000000000000        246264.21384492825     
   1237.5000000000000        254456.46173700757     
   1312.5000000000000        259558.29549019301     
   1400.0000000000000        264549.77904439578     
   1500.0000000000000        266906.53423218115     
   1600.0000000000000        268812.12168700219     
   1700.0000000000000        269913.27929124527     
   1800.0000000000000        271038.38255334779     
   1900.0000000000000        272123.25750699791     
   2000.0000000000000        273025.61289460288     
   2125.0000000000000        273917.14174428984     
   2298.5000000000000        274138.37664626061     
   2445.5000000000000        274300.00695201859     
   2645.0000000000000        274555.63383231784     
   2941.5000000000000        274616.62614443991     
   3256.0000000000000        274634.79405643925     
   3592.5000000000000        274635.68158039305     
   3895.0000000000000        274636.04921733000     
   4285.0000000000000        274636.42581541778     
   4745.0000000000000        274636.46481350367     
   5160.0000000000000        274636.46845795651     
   5647.5000000000000        274636.46915251907     
   6157.5000000000000        274636.46922266169     
   6690.0000000000000        274636.46922915382     
   7320.0000000000000        274636.46922934661     
   7982.5000000000000        274636.46922936488     
   8582.5000000000000        274636.46922936564     
   9100.0000000000000        274636.46922936570     
   9500.0000000000000        274636.46922936570     
   10025.000000000000        274636.46922936570     
   10810.000000000000        274636.46922936570     
   11545.000000000000        274636.46922936570     
   12330.000000000000        274636.46922936570     
   13045.000000000000        274636.46922936570     
   13885.000000000000        274636.46922936570     
   14735.000000000000        274636.46922936570     
   20.000000000000000        100.58014271758837     
   70.000000000000000        1444.8458409159573     
   130.00000000000000        5110.1540250380194     
   190.00000000000000        11879.722841358262     
   250.00000000000000        21921.613549564099     
   305.00000000000000        32874.349902365975     
   355.00000000000000        46088.826623758236     
   410.00000000000000        64792.757168251555     
   467.50000000000000        83557.719446676696     
   520.00000000000000        101584.76333632976     
   581.00000000000000        125154.01830717927     
   642.00000000000000        130492.07151471254     
   693.50000000000000        135152.46055926700     
   760.00000000000000        157945.36297075730     
   837.50000000000000        180307.25434141306     
   907.50000000000000        197484.71597105061     
   970.00000000000000        211470.22008987863     
   1032.5000000000000        224693.72448795586     
   1086.5000000000000        232374.96587498425     
   1154.0000000000000        246232.48974721439     
   1237.5000000000000        254423.36121437716     
   1312.5000000000000        259523.96212056553     
   1400.0000000000000        264513.62949163053     
   1500.0000000000000        266868.95317482174     
   1600.0000000000000        268773.44288581546     
   1700.0000000000000        269873.83803524054     
   1800.0000000000000        270998.35102760041     
   1900.0000000000000        272082.83075007051     
   2000.0000000000000        272984.92459602165     
   2125.0000000000000        273876.21073807130     
   2298.5000000000000        274097.37378047220     
   2445.5000000000000        274258.95064451796     
   2645.0000000000000        274514.49606098933     
   2941.5000000000000        274575.46463629976     
   3256.0000000000000        274593.62360606540     
   3592.5000000000000        274594.51028503594     
   3895.0000000000000        274594.87755292910     
   4285.0000000000000        274595.25395191030     
   4745.0000000000000        274595.29292762140     
   5160.0000000000000        274595.29656918760     
   5647.5000000000000        274595.29726322455     
   6157.5000000000000        274595.29733331536     
   6690.0000000000000        274595.29733980197     
   7320.0000000000000        274595.29733999452     
   7982.5000000000000        274595.29734001274     
   8582.5000000000000        274595.29734001349     
   9100.0000000000000        274595.29734001355     
   9500.0000000000000        274595.29734001355     
   10025.000000000000        274595.29734001355     
   10810.000000000000        274595.29734001355     
   11545.000000000000        274595.29734001355     
   12330.000000000000        274595.29734001355     
   13045.000000000000        274595.29734001355     
   13885.000000000000        274595.29734001355     
   14735.000000000000        274595.29734001355     
   20.000000000000000        100.57485919039726     
   70.000000000000000        1444.7297788530457     
   130.00000000000000        5109.4771028700516     
   190.00000000000000        11878.837682063782     
   250.00000000000000        21920.782116401930     
   305.00000000000000        32872.960909612964     
   355.00000000000000        46084.950112857157     
   410.00000000000000        64785.588804829393     
   467.50000000000000        83547.964653926319     
   520.00000000000000        101572.63820415884     
   581.00000000000000        125138.55771274872     
   642.00000000000000        130475.31465686116     
   693.50000000000000        135134.47287039345     
   760.00000000000000        157923.97189527348     
   837.50000000000000        180282.67904014705     
   907.50000000000000        197457.56111621132     
   970.00000000000000        211440.85674421993     
   1032.5000000000000        224662.15594450023     
   1086.5000000000000        232342.04612539432     
   1154.0000000000000        246196.87917215220     
   1237.5000000000000        254385.72791520169     
   1312.5000000000000        259484.89236844634     
   1400.0000000000000        264472.60138406442     
   1500.0000000000000        266826.68515656766     
   1600.0000000000000        268730.20059311390     
   1700.0000000000000        269829.93870642717     
   1800.0000000000000        270953.88772034872     
   1900.0000000000000        272037.85440248705     
   2000.0000000000000        272939.59355298366     
   2125.0000000000000        273830.55613510963     
   2298.5000000000000        274051.63069862733     
   2445.5000000000000        274213.13947033003     
   2645.0000000000000        274468.57691066258     
   2941.5000000000000        274529.51349671796     
   3256.0000000000000        274547.65998568415     
   3592.5000000000000        274548.54578336485     
   3895.0000000000000        274548.91266471654     
   4285.0000000000000        274549.28879701294     
   4745.0000000000000        274549.32774308871     
   5160.0000000000000        274549.33138072072     
   5647.5000000000000        274549.33207405295     
   6157.5000000000000        274549.33214407531     
   6690.0000000000000        274549.33215055434     
   7320.0000000000000        274549.33215074654     
   7982.5000000000000        274549.33215076476     
   8582.5000000000000        274549.33215076552     
   9100.0000000000000        274549.33215076558     
   9500.0000000000000        274549.33215076558     
   10025.000000000000        274549.33215076558     
   10810.000000000000        274549.33215076558     
   11545.000000000000        274549.33215076558     
   12330.000000000000        274549.33215076558     
   13045.000000000000        274549.33215076558     
   13885.000000000000        274549.33215076558     
   14735.000000000000        274549.33215076558     
   20.000000000000000        100.56810763198061     
   70.000000000000000        1444.6297428664891     
   130.00000000000000        5109.0047196511268     
   190.00000000000000        11876.819733692959     
   250.00000000000000        21915.415611156550     
   305.00000000000000        32866.139803079663     
   355.00000000000000        46076.711017445487     
   410.00000000000000        64774.675547477287     
   467.50000000000000        83534.825396953544     
   520.00000000000000        101557.15864889628     
   581.00000000000000        125119.52203446766     
   642.00000000000000        130454.99452582831     
   693.50000000000000        135112.91083995812     
   760.00000000000000        157898.48610887915     
   837.50000000000000        180253.18018104506     
   907.50000000000000        197424.80730666278     
   970.00000000000000        211405.24117621881     
   1032.5000000000000        224623.67905715873     
   1086.5000000000000        232301.81505182129     
   1154.0000000000000        246153.28805056209     
   1237.5000000000000        254339.86403821904     
   1312.5000000000000        259437.44227364007     
   1400.0000000000000        264423.32180415175     
   1500.0000000000000        266776.15512542467     
   1600.0000000000000        268678.69884232164     
   1700.0000000000000        269777.77576460497     
   1800.0000000000000        270901.17778884078     
   1900.0000000000000        271984.64538261812     
   2000.0000000000000        272885.98241455050     
   2125.0000000000000        273776.54247262597     
   2298.5000000000000        273997.51071815798     
   2445.5000000000000        274158.93422061473     
   2645.0000000000000        274414.23199195397     
   2941.5000000000000        274475.12984635262     
   3256.0000000000000        274493.26276473864     
   3592.5000000000000        274494.14773068309     
   3895.0000000000000        274494.51425214839     
   4285.0000000000000        274494.89004653820     
   4745.0000000000000        274494.92895444960     
   5160.0000000000000        274494.93258780550     
   5647.5000000000000        274494.93328028911     
   6157.5000000000000        274494.93335022288     
   6690.0000000000000        274494.93335669261     
   7320.0000000000000        274494.93335688446     
   7982.5000000000000        274494.93335690262     
   8582.5000000000000        274494.93335690338     
   9100.0000000000000        274494.93335690344     
   9500.0000000000000        274494.93335690344     
   10025.000000000000        274494.93335690344     
   10810.000000000000        274494.93335690344     
   11545.000000000000        274494.93335690344     
   12330.000000000000        274494.93335690344     
   13045.000000000000        274494.93335690344     
   13885.000000000000        274494.93335690344     
   14735.000000000000        274494.93335690344     
