   20.000000000000000        100.95831896377709     
   70.000000000000000        1452.4215466329656     
   130.00000000000000        5140.2852230699846     
   190.00000000000000        11961.357037809365     
   250.00000000000000        22084.909070928094     
   305.00000000000000        33129.253016497467     
   355.00000000000000        46451.868431052586     
   410.00000000000000        65298.522814146614     
   467.50000000000000        84204.929885197358     
   520.00000000000000        102352.82196230887     
   581.00000000000000        126034.86864039022     
   642.00000000000000        131391.97581992784     
   693.50000000000000        136070.00582841030     
   760.00000000000000        158880.38418125577     
   837.50000000000000        181226.38704098549     
   907.50000000000000        198381.87460714002     
   970.00000000000000        212344.38938701164     
   1032.5000000000000        225543.97106198999     
   1086.5000000000000        233212.99916001738     
   1154.0000000000000        247059.03727952784     
   1237.5000000000000        255281.42391794646     
   1312.5000000000000        260454.47214840906     
   1400.0000000000000        265564.27914179605     
   1500.0000000000000        268002.05759848427     
   1600.0000000000000        269972.48017334880     
   1700.0000000000000        271117.27130009769     
   1800.0000000000000        272279.20348426356     
   1900.0000000000000        273388.58012044284     
   2000.0000000000000        274298.75200498354     
   2125.0000000000000        275189.30954433471     
   2298.5000000000000        275409.68550852814     
   2445.5000000000000        275570.56135842763     
   2645.0000000000000        275824.67756832117     
   2941.5000000000000        275885.86178442085     
   3256.0000000000000        275904.40855850605     
   3592.5000000000000        275905.34764457244     
   3895.0000000000000        275905.73997596803     
   4285.0000000000000        275906.11475714389     
   4745.0000000000000        275906.15334664384     
   5160.0000000000000        275906.15710134571     
   5647.5000000000000        275906.15780238307     
   6157.5000000000000        275906.15787148388     
   6690.0000000000000        275906.15787799523     
   7320.0000000000000        275906.15787820262     
   7982.5000000000000        275906.15787822055     
   8582.5000000000000        275906.15787822130     
   9100.0000000000000        275906.15787822136     
   9500.0000000000000        275906.15787822136     
   10025.000000000000        275906.15787822136     
   10810.000000000000        275906.15787822136     
   11545.000000000000        275906.15787822136     
   12330.000000000000        275906.15787822136     
   13045.000000000000        275906.15787822136     
   13885.000000000000        275906.15787822136     
   14735.000000000000        275906.15787822136     
   20.000000000000000        91.846006487502493     
   70.000000000000000        1341.9961820200706     
   130.00000000000000        4724.2510169307525     
   190.00000000000000        10673.048781838928     
   250.00000000000000        19170.341648777954     
   305.00000000000000        28105.271259436089     
   355.00000000000000        38699.613442197275     
   410.00000000000000        53818.271474521527     
   467.50000000000000        69040.582853619853     
   520.00000000000000        83892.580610086414     
   581.00000000000000        104220.87888355408     
   642.00000000000000        109470.81844981131     
   693.50000000000000        114093.94962897728     
   760.00000000000000        135598.78179737093     
   837.50000000000000        157154.05573005660     
   907.50000000000000        173870.92145386204     
   970.00000000000000        187552.65009534601     
   1032.5000000000000        200506.19466633126     
   1086.5000000000000        207978.15052369118     
   1154.0000000000000        221197.84543077572     
   1237.5000000000000        228481.28690270454     
   1312.5000000000000        232422.81685688614     
   1400.0000000000000        234978.63956724561     
   1500.0000000000000        235912.19603030480     
   1600.0000000000000        236635.40826914573     
   1700.0000000000000        237009.92729135772     
   1800.0000000000000        237438.89982191444     
   1900.0000000000000        238009.90521865859     
   2000.0000000000000        238674.55239637484     
   2125.0000000000000        239484.65889910827     
   2298.5000000000000        239701.05013166083     
   2445.5000000000000        239860.19514667720     
   2645.0000000000000        240110.63889792952     
   2941.5000000000000        240161.82326390911     
   3256.0000000000000        240171.62645726785     
   3592.5000000000000        240171.80424657103     
   3895.0000000000000        240171.85818688638     
   4285.0000000000000        240172.19745946091     
   4745.0000000000000        240172.23501603107     
   5160.0000000000000        240172.23670827315     
   5647.5000000000000        240172.23719846492     
   6157.5000000000000        240172.23726741303     
   6690.0000000000000        240172.23727221135     
   7320.0000000000000        240172.23727224072     
   7982.5000000000000        240172.23727225821     
   8582.5000000000000        240172.23727225876     
   9100.0000000000000        240172.23727225882     
   9500.0000000000000        240172.23727225882     
   10025.000000000000        240172.23727225882     
   10810.000000000000        240172.23727225882     
   11545.000000000000        240172.23727225882     
   12330.000000000000        240172.23727225882     
   13045.000000000000        240172.23727225882     
   13885.000000000000        240172.23727225882     
   14735.000000000000        240172.23727225882     
   20.000000000000000        91.848036029187000     
   70.000000000000000        1341.0034196847537     
   130.00000000000000        4722.4027678157472     
   190.00000000000000        10667.364018724318     
   250.00000000000000        19161.671341828402     
   305.00000000000000        28094.695348082354     
   355.00000000000000        38689.084937124630     
   410.00000000000000        53810.009089492683     
   467.50000000000000        69035.862175422080     
   520.00000000000000        83892.592992858306     
   581.00000000000000        104226.28490557845     
   642.00000000000000        109473.19422128247     
   693.50000000000000        114092.94742304005     
   760.00000000000000        135612.54811686635     
   837.50000000000000        157192.70901708948     
   907.50000000000000        173931.63308064829     
   970.00000000000000        187633.20282181317     
   1032.5000000000000        200607.05514052438     
   1086.5000000000000        208091.18857660101     
   1154.0000000000000        221333.00215327149     
   1237.5000000000000        228627.01344525651     
   1312.5000000000000        232572.43284693389     
   1400.0000000000000        235129.45790718135     
   1500.0000000000000        236062.62452612576     
   1600.0000000000000        236785.74576003657     
   1700.0000000000000        237160.08164978714     
   1800.0000000000000        237589.26231805101     
   1900.0000000000000        238160.95431078278     
   2000.0000000000000        238827.02171063353     
   2125.0000000000000        239639.57408498949     
   2298.5000000000000        239856.62542761673     
   2445.5000000000000        240016.37028874955     
   2645.0000000000000        240267.88357940549     
   2941.5000000000000        240319.28398801072     
   3256.0000000000000        240329.11971053088     
   3592.5000000000000        240329.29770960758     
   3895.0000000000000        240329.35174926155     
   4285.0000000000000        240329.69328642017     
   4745.0000000000000        240329.73113294318     
   5160.0000000000000        240329.73283537457     
   5647.5000000000000        240329.73332973712     
   6157.5000000000000        240329.73339938925     
   6690.0000000000000        240329.73340423664     
   7320.0000000000000        240329.73340426618     
   7982.5000000000000        240329.73340428391     
   8582.5000000000000        240329.73340428446     
   9100.0000000000000        240329.73340428452     
   9500.0000000000000        240329.73340428452     
   10025.000000000000        240329.73340428452     
   10810.000000000000        240329.73340428452     
   11545.000000000000        240329.73340428452     
   12330.000000000000        240329.73340428452     
   13045.000000000000        240329.73340428452     
   13885.000000000000        240329.73340428452     
   14735.000000000000        240329.73340428452     
   20.000000000000000        91.851271411040784     
   70.000000000000000        1340.9239605819039     
   130.00000000000000        4722.2310442575281     
   190.00000000000000        10666.653971532985     
   250.00000000000000        19160.687547207654     
   305.00000000000000        28093.792554813153     
   355.00000000000000        38688.935783126275     
   410.00000000000000        53811.319406905532     
   467.50000000000000        69038.815236366543     
   520.00000000000000        83897.125475019289     
   581.00000000000000        104232.57133965621     
   642.00000000000000        109478.55635063034     
   693.50000000000000        114097.23874124751     
   760.00000000000000        135618.25622031002     
   837.50000000000000        157199.54684500254     
   907.50000000000000        173939.46969604571     
   970.00000000000000        187641.97855877975     
   1032.5000000000000        200616.81173058733     
   1086.5000000000000        208101.56407515239     
   1154.0000000000000        221344.56339865868     
   1237.5000000000000        228639.49444770304     
   1312.5000000000000        232585.39761520442     
   1400.0000000000000        235143.26215051021     
   1500.0000000000000        236076.62609210482     
   1600.0000000000000        236799.95840564731     
   1700.0000000000000        237174.39195610257     
   1800.0000000000000        237603.75164764523     
   1900.0000000000000        238175.64619808365     
   2000.0000000000000        238841.83863243953     
   2125.0000000000000        239654.52933840497     
   2298.5000000000000        239871.63787318513     
   2445.5000000000000        240031.41851970382     
   2645.0000000000000        240282.98692493179     
   2941.5000000000000        240334.40044980601     
   3256.0000000000000        240344.23949870508     
   3592.5000000000000        240344.41763584522     
   3895.0000000000000        240344.47172917979     
   4285.0000000000000        240344.81338544836     
   4745.0000000000000        240344.85124753302     
   5160.0000000000000        240344.85295071299     
   5647.5000000000000        240344.85344531291     
   6157.5000000000000        240344.85351500256     
   6690.0000000000000        240344.85351985251     
   7320.0000000000000        240344.85351988208     
   7982.5000000000000        240344.85351989980     
   8582.5000000000000        240344.85351990035     
   9100.0000000000000        240344.85351990041     
   9500.0000000000000        240344.85351990041     
   10025.000000000000        240344.85351990041     
   10810.000000000000        240344.85351990041     
   11545.000000000000        240344.85351990041     
   12330.000000000000        240344.85351990041     
   13045.000000000000        240344.85351990041     
   13885.000000000000        240344.85351990041     
   14735.000000000000        240344.85351990041     
   20.000000000000000        91.853314769679443     
   70.000000000000000        1340.9410432175682     
   130.00000000000000        4722.2769743576055     
   190.00000000000000        10666.743432951040     
   250.00000000000000        19160.953545057549     
   305.00000000000000        28094.409985181999     
   355.00000000000000        38690.170373911416     
   410.00000000000000        53813.112002793197     
   467.50000000000000        69040.915035108526     
   520.00000000000000        83899.147248044785     
   581.00000000000000        104234.46617096855     
   642.00000000000000        109480.45355352396     
   693.50000000000000        114099.06438945780     
   760.00000000000000        135617.36824766113     
   837.50000000000000        157193.25084135190     
   907.50000000000000        173928.39864348897     
   970.00000000000000        187626.65423667169     
   1032.5000000000000        200597.15059733891     
   1086.5000000000000        208079.32153149403     
   1154.0000000000000        221317.64014064107     
   1237.5000000000000        228610.39471266518     
   1312.5000000000000        232555.72040485422     
   1400.0000000000000        235113.88041564860     
   1500.0000000000000        236047.48998227413     
   1600.0000000000000        236771.00492871468     
   1700.0000000000000        237145.55586642638     
   1800.0000000000000        237575.00511453691     
   1900.0000000000000        238146.86113243105     
   2000.0000000000000        238812.77849639932     
   2125.0000000000000        239624.95634511256     
   2298.5000000000000        239841.94064993318     
   2445.5000000000000        240001.59814916865     
   2645.0000000000000        240252.94059416649     
   2941.5000000000000        240304.30939732818     
   3256.0000000000000        240314.14231294335     
   3592.5000000000000        240314.32050130769     
   3895.0000000000000        240314.37461059625     
   4285.0000000000000        240314.71578776700     
   4745.0000000000000        240314.75358890597     
   5160.0000000000000        240314.75529000961     
   5647.5000000000000        240314.75578373382     
   6157.5000000000000        240314.75585327533     
   6690.0000000000000        240314.75585811483     
   7320.0000000000000        240314.75585814437     
   7982.5000000000000        240314.75585816207     
   8582.5000000000000        240314.75585816262     
   9100.0000000000000        240314.75585816268     
   9500.0000000000000        240314.75585816268     
   10025.000000000000        240314.75585816268     
   10810.000000000000        240314.75585816268     
   11545.000000000000        240314.75585816268     
   12330.000000000000        240314.75585816268     
   13045.000000000000        240314.75585816268     
   13885.000000000000        240314.75585816268     
   14735.000000000000        240314.75585816268     
   20.000000000000000        91.852618286410845     
   70.000000000000000        1340.8229286944993     
   130.00000000000000        4721.7883188021560     
   190.00000000000000        10665.644145477479     
   250.00000000000000        19159.307204305962     
   305.00000000000000        28092.529070948254     
   355.00000000000000        38688.373355631113     
   410.00000000000000        53811.497322408555     
   467.50000000000000        69039.522764242298     
   520.00000000000000        83897.999617041889     
   581.00000000000000        104233.66119381739     
   642.00000000000000        109479.13488311249     
   693.50000000000000        114097.12738028419     
   760.00000000000000        135616.23420153995     
   837.50000000000000        157193.36317902061     
   907.50000000000000        173929.64100450373     
   970.00000000000000        187628.91946189009     
   1032.5000000000000        200600.46698958243     
   1086.5000000000000        208083.26631386267     
   1154.0000000000000        221322.71828866532     
   1237.5000000000000        228616.06501649358     
   1312.5000000000000        232561.54768713663     
   1400.0000000000000        235119.83257040760     
   1500.0000000000000        236053.45089572959     
   1600.0000000000000        236776.98296766303     
   1700.0000000000000        237151.54070221630     
   1800.0000000000000        237581.01552387213     
   1900.0000000000000        238152.90279068999     
   2000.0000000000000        238818.88539139510     
   2125.0000000000000        239631.18855297213     
   2298.5000000000000        239848.20984316515     
   2445.5000000000000        240007.89994493057     
   2645.0000000000000        240259.29894647957     
   2941.5000000000000        240310.67883913507     
   3256.0000000000000        240320.51319565505     
   3592.5000000000000        240320.69140295437     
   3895.0000000000000        240320.74551909757     
   4285.0000000000000        240321.08681447350     
   4745.0000000000000        240321.12463100068     
   5160.0000000000000        240321.12633258043     
   5647.5000000000000        240321.12682651932     
   6157.5000000000000        240321.12689609843     
   6690.0000000000000        240321.12690094046     
   7320.0000000000000        240321.12690097000     
   7982.5000000000000        240321.12690098770     
   8582.5000000000000        240321.12690098825     
   9100.0000000000000        240321.12690098831     
   9500.0000000000000        240321.12690098831     
   10025.000000000000        240321.12690098831     
   10810.000000000000        240321.12690098831     
   11545.000000000000        240321.12690098831     
   12330.000000000000        240321.12690098831     
   13045.000000000000        240321.12690098831     
   13885.000000000000        240321.12690098831     
   14735.000000000000        240321.12690098831     
   20.000000000000000        91.854323509809944     
   70.000000000000000        1340.8553473485281     
   130.00000000000000        4721.9378630136680     
   190.00000000000000        10665.893964289302     
   250.00000000000000        19159.764350654073     
   305.00000000000000        28093.216873534104     
   355.00000000000000        38689.406323788397     
   410.00000000000000        53812.885107319693     
   467.50000000000000        69041.239194550406     
   520.00000000000000        83900.013161208757     
   581.00000000000000        104236.02165371238     
   642.00000000000000        109481.02478084317     
   693.50000000000000        114098.41511681661     
   760.00000000000000        135618.16799058148     
   837.50000000000000        157196.23160598346     
   907.50000000000000        173933.34970436885     
   970.00000000000000        187633.39367395802     
   1032.5000000000000        200605.72976408293     
   1086.5000000000000        208089.00241699698     
   1154.0000000000000        221329.30504023976     
   1237.5000000000000        228622.99347738468     
   1312.5000000000000        232568.67620998761     
   1400.0000000000000        235127.10268914126     
   1500.0000000000000        236060.85441282493     
   1600.0000000000000        236784.47762611747     
   1700.0000000000000        237159.09809933312     
   1800.0000000000000        237588.61376929883     
   1900.0000000000000        238160.53676406163     
   2000.0000000000000        238826.57296364807     
   2125.0000000000000        239638.97147023815     
   2298.5000000000000        239856.02170650457     
   2445.5000000000000        240015.73647392954     
   2645.0000000000000        240267.17788902036     
   2941.5000000000000        240318.56626609157     
   3256.0000000000000        240328.40180922969     
   3592.5000000000000        240328.58004021889     
   3895.0000000000000        240328.63416484726     
   4285.0000000000000        240328.97554935780     
   4745.0000000000000        240329.01337746758     
   5160.0000000000000        240329.01507942684     
   5647.5000000000000        240329.01557352912     
   6157.5000000000000        240329.01564313646     
   6690.0000000000000        240329.01564798041     
   7320.0000000000000        240329.01564800995     
   7982.5000000000000        240329.01564802765     
   8582.5000000000000        240329.01564802820     
   9100.0000000000000        240329.01564802826     
   9500.0000000000000        240329.01564802826     
   10025.000000000000        240329.01564802826     
   10810.000000000000        240329.01564802826     
   11545.000000000000        240329.01564802826     
   12330.000000000000        240329.01564802826     
   13045.000000000000        240329.01564802826     
   13885.000000000000        240329.01564802826     
   14735.000000000000        240329.01564802826     
   20.000000000000000        91.854638076425033     
   70.000000000000000        1340.8129648180216     
   130.00000000000000        4721.7907418820741     
   190.00000000000000        10665.361708007418     
   250.00000000000000        19158.867681558851     
   305.00000000000000        28092.085407321207     
   355.00000000000000        38688.257919731201     
   410.00000000000000        53812.039564636332     
   467.50000000000000        69040.976349724311     
   520.00000000000000        83900.649358019335     
   581.00000000000000        104237.78129091843     
   642.00000000000000        109481.80174955435     
   693.50000000000000        114098.10498522771     
   760.00000000000000        135621.64670343319     
   837.50000000000000        157206.21854633524     
   907.50000000000000        173949.12598744011     
   970.00000000000000        187654.37269922014     
   1032.5000000000000        200632.03391632467     
   1086.5000000000000        208118.49324550273     
   1154.0000000000000        221364.57202216962     
   1237.5000000000000        228660.99268547981     
   1312.5000000000000        232607.60862972090     
   1400.0000000000000        235166.18005075020     
   1500.0000000000000        236099.87295281433     
   1600.0000000000000        236823.47313529166     
   1700.0000000000000        237198.06667516832     
   1800.0000000000000        237627.60026030263     
   1900.0000000000000        238199.66127470575     
   2000.0000000000000        238866.05367314460     
   2125.0000000000000        239679.09065735314     
   2298.5000000000000        239896.31249012219     
   2445.5000000000000        240056.18480123990     
   2645.0000000000000        240307.90730473390     
   2941.5000000000000        240359.35193411849     
   3256.0000000000000        240369.19553562117     
   3592.5000000000000        240369.37379192011     
   3895.0000000000000        240369.42792850573     
   4285.0000000000000        240369.76990795825     
   4745.0000000000000        240369.80781233264     
   5160.0000000000000        240369.80951689964     
   5647.5000000000000        240369.81001209427     
   6157.5000000000000        240369.81008188718     
   6690.0000000000000        240369.81008674402     
   7320.0000000000000        240369.81008677362     
   7982.5000000000000        240369.81008679137     
   8582.5000000000000        240369.81008679193     
   9100.0000000000000        240369.81008679199     
   9500.0000000000000        240369.81008679199     
   10025.000000000000        240369.81008679199     
   10810.000000000000        240369.81008679199     
   11545.000000000000        240369.81008679199     
   12330.000000000000        240369.81008679199     
   13045.000000000000        240369.81008679199     
   13885.000000000000        240369.81008679199     
   14735.000000000000        240369.81008679199     
   20.000000000000000        91.855249951509876     
   70.000000000000000        1340.7832304106325     
   130.00000000000000        4721.6749199740325     
   190.00000000000000        10664.966234842186     
   250.00000000000000        19158.233050642055     
   305.00000000000000        28091.349655202732     
   355.00000000000000        38687.626862708872     
   410.00000000000000        53811.788007529743     
   467.50000000000000        69041.296677109785     
   520.00000000000000        83901.728281612057     
   581.00000000000000        104239.79945095550     
   642.00000000000000        109483.00993672614     
   693.50000000000000        114098.41506882294     
   760.00000000000000        135624.48079695058     
   837.50000000000000        157213.17998124575     
   907.50000000000000        173959.75362643096     
   970.00000000000000        187668.30971507641     
   1032.5000000000000        200649.35851959113     
   1086.5000000000000        208137.84906577761     
   1154.0000000000000        221387.61452184489     
   1237.5000000000000        228685.88749005011     
   1312.5000000000000        232633.11294602405     
   1400.0000000000000        235191.90041900519     
   1500.0000000000000        236125.58888498475     
   1600.0000000000000        236849.20530377937     
   1700.0000000000000        237223.79695793591     
   1800.0000000000000        237653.36541587499     
   1900.0000000000000        238225.53758318108     
   2000.0000000000000        238892.16363700424     
   2125.0000000000000        239705.60949499585     
   2298.5000000000000        239922.94487916733     
   2445.5000000000000        240082.91870648807     
   2645.0000000000000        240334.82062040039     
   2941.5000000000000        240386.30141059423     
   3256.0000000000000        240396.15037754856     
   3592.5000000000000        240396.32866830847     
   3895.0000000000000        240396.38281922031     
   4285.0000000000000        240396.72517869188     
   4745.0000000000000        240396.76313187653     
   5160.0000000000000        240396.76483813499     
   5647.5000000000000        240396.76533403018     
   6157.5000000000000        240396.76540394188     
   6690.0000000000000        240396.76540880697     
   7320.0000000000000        240396.76540883660     
   7982.5000000000000        240396.76540885441     
   8582.5000000000000        240396.76540885496     
   9100.0000000000000        240396.76540885502     
   9500.0000000000000        240396.76540885502     
   10025.000000000000        240396.76540885502     
   10810.000000000000        240396.76540885502     
   11545.000000000000        240396.76540885502     
   12330.000000000000        240396.76540885502     
   13045.000000000000        240396.76540885502     
   13885.000000000000        240396.76540885502     
   14735.000000000000        240396.76540885502     
   20.000000000000000        91.856094092622527     
   70.000000000000000        1340.7752337818317     
   130.00000000000000        4721.6443330993488     
   190.00000000000000        10664.783239150531     
   250.00000000000000        19157.947888261238     
   305.00000000000000        28091.061293022776     
   355.00000000000000        38687.491551979547     
   410.00000000000000        53812.004081682884     
   467.50000000000000        69041.992619967597     
   520.00000000000000        83903.012956676990     
   581.00000000000000        104241.81158078530     
   642.00000000000000        109484.33836048254     
   693.50000000000000        114098.98737433818     
   760.00000000000000        135626.85220868530     
   837.50000000000000        157218.41621722732     
   907.50000000000000        173967.54106448041     
   970.00000000000000        187678.39662799364     
   1032.5000000000000        200661.80458885146     
   1086.5000000000000        208151.71184144469     
   1154.0000000000000        221404.04514227677     
   1237.5000000000000        228703.57234576149     
   1312.5000000000000        232651.26343781562     
   1400.0000000000000        235210.23577200595     
   1500.0000000000000        236143.94917257005     
   1600.0000000000000        236867.59853104322     
   1700.0000000000000        237242.20202579731     
   1800.0000000000000        237671.80611909507     
   1900.0000000000000        238244.06217579497     
   2000.0000000000000        238910.85145801300     
   2125.0000000000000        239724.58285809899     
   2298.5000000000000        239941.99926996254     
   2445.5000000000000        240102.04459426214     
   2645.0000000000000        240354.07206500124     
   2941.5000000000000        240405.57819101861     
   3256.0000000000000        240415.43089744408     
   3592.5000000000000        240415.60921977236     
   3895.0000000000000        240415.66338325667     
   4285.0000000000000        240416.00600863589     
   4745.0000000000000        240416.04399602336     
   5160.0000000000000        240416.04570345956     
   5647.5000000000000        240416.04619984466     
   6157.5000000000000        240416.04626983969     
   6690.0000000000000        240416.04627471053     
   7320.0000000000000        240416.04627474019     
   7982.5000000000000        240416.04627475803     
   8582.5000000000000        240416.04627475858     
   9100.0000000000000        240416.04627475864     
   9500.0000000000000        240416.04627475864     
   10025.000000000000        240416.04627475864     
   10810.000000000000        240416.04627475864     
   11545.000000000000        240416.04627475864     
   12330.000000000000        240416.04627475864     
   13045.000000000000        240416.04627475864     
   13885.000000000000        240416.04627475864     
   14735.000000000000        240416.04627475864     
   20.000000000000000        91.856200534195438     
   70.000000000000000        1340.7096247171673     
   130.00000000000000        4721.3808500089281     
   190.00000000000000        10664.028324210316     
   250.00000000000000        19156.716163131896     
   305.00000000000000        28089.544858366247     
   355.00000000000000        38685.928759405448     
   410.00000000000000        53810.920272786367     
   467.50000000000000        69041.838671411722     
   520.00000000000000        83904.310391625128     
   581.00000000000000        104244.93353445140     
   642.00000000000000        109486.03809096092     
   693.50000000000000        114099.17840695103     
   760.00000000000000        135633.26061485548     
   837.50000000000000        157235.49452599839     
   907.50000000000000        173994.10157916954     
   970.00000000000000        187713.49119009025     
   1032.5000000000000        200705.62659906535     
   1086.5000000000000        208200.75818941442     
   1154.0000000000000        221462.55995493263     
   1237.5000000000000        228766.62083594105     
   1312.5000000000000        232715.81047131389     
   1400.0000000000000        235275.03348312504     
   1500.0000000000000        236208.65180020797     
   1600.0000000000000        236932.26353542577     
   1700.0000000000000        237306.82156802615     
   1800.0000000000000        237736.45467234601     
   1900.0000000000000        238308.93887484039     
   2000.0000000000000        238976.31357726562     
   2125.0000000000000        239791.09276215304     
   2298.5000000000000        240008.79127172311     
   2445.5000000000000        240169.09506726410     
   2645.0000000000000        240421.58388588732     
   2941.5000000000000        240473.18238692477     
   3256.0000000000000        240483.04838189468     
   3592.5000000000000        240483.22674588463     
   3895.0000000000000        240483.28092904371     
   4285.0000000000000        240483.62453253558     
   4745.0000000000000        240483.66264538068     
   5160.0000000000000        240483.66435711377     
   5647.5000000000000        240483.66485529812     
   6157.5000000000000        240483.66492559883     
   6690.0000000000000        240483.66493049095     
   7320.0000000000000        240483.66493052067     
   7982.5000000000000        240483.66493053859     
   8582.5000000000000        240483.66493053918     
   9100.0000000000000        240483.66493053923     
   9500.0000000000000        240483.66493053923     
   10025.000000000000        240483.66493053923     
   10810.000000000000        240483.66493053923     
   11545.000000000000        240483.66493053923     
   12330.000000000000        240483.66493053923     
   13045.000000000000        240483.66493053923     
   13885.000000000000        240483.66493053923     
   14735.000000000000        240483.66493053923     
   20.000000000000000        91.856949394402847     
   70.000000000000000        1340.6644453613865     
   130.00000000000000        4721.1888467660356     
   190.00000000000000        10663.501855373199     
   250.00000000000000        19155.917820455328     
   305.00000000000000        28088.672385363916     
   355.00000000000000        38685.223257639511     
   410.00000000000000        53810.834072072525     
   467.50000000000000        69042.678927781337     
   520.00000000000000        83906.371254853409     
   581.00000000000000        104248.51127703697     
   642.00000000000000        109488.47973712037     
   693.50000000000000        114100.42235590328     
   760.00000000000000        135638.63495481477     
   837.50000000000000        157247.62539699857     
   907.50000000000000        174012.24011518841     
   970.00000000000000        187737.04708073643     
   1032.5000000000000        200734.73155558622     
   1086.5000000000000        208233.19076676047     
   1154.0000000000000        221501.03194020572     
   1237.5000000000000        228808.02015628421     
   1312.5000000000000        232758.25991673142     
   1400.0000000000000        235317.81588168579     
   1500.0000000000000        236251.43308649387     
   1600.0000000000000        236975.07653807304     
   1700.0000000000000        237349.63328291077     
   1800.0000000000000        237779.32575534465     
   1900.0000000000000        238351.99310351902     
   2000.0000000000000        239019.75134686579     
   2125.0000000000000        239835.20155685864     
   2298.5000000000000        240053.08662049787     
   2445.5000000000000        240213.55697480676     
   2645.0000000000000        240466.34047405480     
   2941.5000000000000        240517.99840321057     
   3256.0000000000000        240527.87319243030     
   3592.5000000000000        240528.05161388250     
   3895.0000000000000        240528.10582103080     
   4285.0000000000000        240528.45005011722     
   4745.0000000000000        240528.48824334636     
   5160.0000000000000        240528.48995786509     
   5647.5000000000000        240528.49045720446     
   6157.5000000000000        240528.49052770119     
   6690.0000000000000        240528.49053260690     
   7320.0000000000000        240528.49053263667     
   7982.5000000000000        240528.49053265466     
   8582.5000000000000        240528.49053265524     
   9100.0000000000000        240528.49053265530     
   9500.0000000000000        240528.49053265530     
   10025.000000000000        240528.49053265530     
   10810.000000000000        240528.49053265530     
   11545.000000000000        240528.49053265530     
   12330.000000000000        240528.49053265530     
   13045.000000000000        240528.49053265530     
   13885.000000000000        240528.49053265530     
   14735.000000000000        240528.49053265530     
   20.000000000000000        91.856423425631235     
   70.000000000000000        1340.5557418257981     
   130.00000000000000        4720.7182659933660     
   190.00000000000000        10662.480370981813     
   250.00000000000000        19154.398980349935     
   305.00000000000000        28086.953537694892     
   355.00000000000000        38683.568872753051     
   410.00000000000000        53809.586372323458     
   467.50000000000000        69042.074746802886     
   520.00000000000000        83906.643495333425     
   581.00000000000000        104249.90355240594     
   642.00000000000000        109488.88074817311     
   693.50000000000000        114099.78023931468     
   760.00000000000000        135641.36486838604     
   837.50000000000000        157255.97466544318     
   907.50000000000000        174025.60202933478     
   970.00000000000000        187754.93053764815     
   1032.5000000000000        200757.25162140006     
   1086.5000000000000        208258.48756218571     
   1154.0000000000000        221531.34991189567     
   1237.5000000000000        228840.64521225626     
   1312.5000000000000        232791.75183127943     
   1400.0000000000000        235351.51856726280     
   1500.0000000000000        236285.10423672388     
   1600.0000000000000        237008.75247054049     
   1700.0000000000000        237383.29455076228     
   1800.0000000000000        237813.02847671486     
   1900.0000000000000        238385.82892024386     
   2000.0000000000000        239053.89565409970     
   2125.0000000000000        239869.90319331875     
   2298.5000000000000        240087.94259254824     
   2445.5000000000000        240248.55229887390     
   2645.0000000000000        240501.58260965667     
   2941.5000000000000        240553.28982826031     
   3256.0000000000000        240563.17157314456     
   3592.5000000000000        240563.35003541427     
   3895.0000000000000        240563.40425965961     
   4285.0000000000000        240563.74901159166     
   4745.0000000000000        240563.78727216742     
   5160.0000000000000        240563.78898894909     
   5647.5000000000000        240563.78948924987     
   6157.5000000000000        240563.78955991112     
   6690.0000000000000        240563.78956482821     
   7320.0000000000000        240563.78956485802     
   7982.5000000000000        240563.78956487606     
   8582.5000000000000        240563.78956487664     
   9100.0000000000000        240563.78956487670     
   9500.0000000000000        240563.78956487670     
   10025.000000000000        240563.78956487670     
   10810.000000000000        240563.78956487670     
   11545.000000000000        240563.78956487670     
   12330.000000000000        240563.78956487670     
   13045.000000000000        240563.78956487670     
   13885.000000000000        240563.78956487670     
   14735.000000000000        240563.78956487670     
   20.000000000000000        91.856977052764336     
   70.000000000000000        1340.5121323879212     
   130.00000000000000        4720.5492759082554     
   190.00000000000000        10661.917310266754     
   250.00000000000000        19153.451568221764     
   305.00000000000000        28085.763986557246     
   355.00000000000000        38682.336081048481     
   410.00000000000000        53808.971480193512     
   467.50000000000000        69042.667868151038     
   520.00000000000000        83909.225010090973     
   581.00000000000000        104255.10181070119     
   642.00000000000000        109492.03819455701     
   693.50000000000000        114100.82935618571     
   760.00000000000000        135652.85853511354     
   837.50000000000000        157285.52525851328     
   907.50000000000000        174071.12869225495     
   970.00000000000000        187814.78597618931     
   1032.5000000000000        200831.73689518627     
   1086.5000000000000        208341.72268343635     
   1154.0000000000000        221630.46400629074     
   1237.5000000000000        228947.53321062110     
   1312.5000000000000        232901.03075464113     
   1400.0000000000000        235461.13443101899     
   1500.0000000000000        236394.60792718915     
   1600.0000000000000        237118.21163868919     
   1700.0000000000000        237492.69856218819     
   1800.0000000000000        237922.46725614724     
   1900.0000000000000        238495.59862235386     
   2000.0000000000000        239164.64888862669     
   2125.0000000000000        239982.41547706528     
   2298.5000000000000        240200.92304165490     
   2445.5000000000000        240361.96346177527     
   2645.0000000000000        240615.76478254222     
   2941.5000000000000        240667.62682983300     
   3256.0000000000000        240677.53082034815     
   3592.5000000000000        240677.70932763725     
   3895.0000000000000        240677.76357666732     
   4285.0000000000000        240678.10997283604     
   4745.0000000000000        240678.14844354338     
   5160.0000000000000        240678.15016764888     
   5647.5000000000000        240678.15067097309     
   6157.5000000000000        240678.15074214671     
   6690.0000000000000        240678.15074709977     
   7320.0000000000000        240678.15074712969     
   7982.5000000000000        240678.15074714791     
   8582.5000000000000        240678.15074714849     
   9100.0000000000000        240678.15074714855     
   9500.0000000000000        240678.15074714855     
   10025.000000000000        240678.15074714855     
   10810.000000000000        240678.15074714855     
   11545.000000000000        240678.15074714855     
   12330.000000000000        240678.15074714855     
   13045.000000000000        240678.15074714855     
   13885.000000000000        240678.15074714855     
   14735.000000000000        240678.15074714855     
   20.000000000000000        91.858234025282130     
   70.000000000000000        1340.4660939710991     
   130.00000000000000        4720.3547917027290     
   190.00000000000000        10661.384140643631     
   250.00000000000000        19152.650502655782     
   305.00000000000000        28084.917510746887     
   355.00000000000000        38681.724924603936     
   410.00000000000000        53809.294666093338     
   467.50000000000000        69044.406774163348     
   520.00000000000000        83912.864236645270     
   581.00000000000000        104261.10573245111     
   642.00000000000000        109496.46718310691     
   693.50000000000000        114103.66004912436     
   760.00000000000000        135662.41223070092     
   837.50000000000000        157306.18590081914     
   907.50000000000000        174101.66517492500     
   970.00000000000000        187854.23154983993     
   1032.5000000000000        200880.30462615323     
   1086.5000000000000        208395.76110764893     
   1154.0000000000000        221694.42368158931     
   1237.5000000000000        229016.18776220185     
   1312.5000000000000        232971.42195126443     
   1400.0000000000000        235532.00038486221     
   1500.0000000000000        236465.47233114671     
   1600.0000000000000        237189.12292894829     
   1700.0000000000000        237563.60702855649     
   1800.0000000000000        237993.46303368191     
   1900.0000000000000        238566.88433553532     
   2000.0000000000000        239236.56238820963     
   2125.0000000000000        240055.43305766178     
   2298.5000000000000        240274.24595986804     
   2445.5000000000000        240435.56033708944     
   2645.0000000000000        240689.84758012547     
   2941.5000000000000        240741.80750065556     
   3256.0000000000000        240751.72586332227     
   3592.5000000000000        240751.90445630372     
   3895.0000000000000        240751.95874156564     
   4285.0000000000000        240752.30617271690     
   4745.0000000000000        240752.34477653942     
   5160.0000000000000        240752.34650524086     
   5647.5000000000000        240752.34701048015     
   6157.5000000000000        240752.34708197939     
   6690.0000000000000        240752.34708695507     
   7320.0000000000000        240752.34708698507     
   7982.5000000000000        240752.34708700341     
   8582.5000000000000        240752.34708700399     
   9100.0000000000000        240752.34708700405     
   9500.0000000000000        240752.34708700405     
   10025.000000000000        240752.34708700405     
   10810.000000000000        240752.34708700405     
   11545.000000000000        240752.34708700405     
   12330.000000000000        240752.34708700405     
   13045.000000000000        240752.34708700405     
   13885.000000000000        240752.34708700405     
   14735.000000000000        240752.34708700405     
   20.000000000000000        91.859642900141239     
   70.000000000000000        1340.4331086106738     
   130.00000000000000        4720.2106985851897     
   190.00000000000000        10661.010469837240     
   250.00000000000000        19152.144697251344     
   305.00000000000000        28084.486211475742     
   355.00000000000000        38681.616213709764     
   410.00000000000000        53810.051551428711     
   467.50000000000000        69046.355508599008     
   520.00000000000000        83916.290997019110     
   581.00000000000000        104266.37639494991     
   642.00000000000000        109500.48731689964     
   693.50000000000000        114106.41754668718     
   760.00000000000000        135669.86228578645     
   837.50000000000000        157321.15189816899     
   907.50000000000000        174123.33006533672     
   970.00000000000000        187881.94567143917     
   1032.5000000000000        200914.22439411748     
   1086.5000000000000        208433.40682451267     
   1154.0000000000000        221738.82965584926     
   1237.5000000000000        229063.86684787815     
   1312.5000000000000        233020.30990872663     
   1400.0000000000000        235581.35345887663     
   1500.0000000000000        236514.87657502180     
   1600.0000000000000        237238.60497478073     
   1700.0000000000000        237613.11139925735     
   1800.0000000000000        238043.05776142635     
   1900.0000000000000        238616.69937645554     
   2000.0000000000000        239286.80880661713     
   2125.0000000000000        240106.43342206595     
   2298.5000000000000        240325.45960030041     
   2445.5000000000000        240486.96246054463     
   2645.0000000000000        240741.58177832465     
   2941.5000000000000        240793.60870176434     
   3256.0000000000000        240803.53698903459     
   3592.5000000000000        240803.71566287981     
   3895.0000000000000        240803.76998090776     
   4285.0000000000000        240804.11811944313     
   4745.0000000000000        240804.15681447226     
   5160.0000000000000        240804.15854631833     
   5647.5000000000000        240804.15905286890     
   6157.5000000000000        240804.15912459150     
   6690.0000000000000        240804.15912958267     
   7320.0000000000000        240804.15912961270     
   7982.5000000000000        240804.15912963109     
   8582.5000000000000        240804.15912963168     
   9100.0000000000000        240804.15912963173     
   9500.0000000000000        240804.15912963173     
   10025.000000000000        240804.15912963173     
   10810.000000000000        240804.15912963173     
   11545.000000000000        240804.15912963173     
   12330.000000000000        240804.15912963173     
   13045.000000000000        240804.15912963173     
   13885.000000000000        240804.15912963173     
   14735.000000000000        240804.15912963173     
   20.000000000000000        91.860747238825851     
   70.000000000000000        1340.3954324446190     
   130.00000000000000        4720.0489790350193     
   190.00000000000000        10660.615063408211     
   250.00000000000000        19151.598310484002     
   305.00000000000000        28083.977946721508     
   355.00000000000000        38681.366726379747     
   410.00000000000000        53810.552912800107     
   467.50000000000000        69047.918880272089     
   520.00000000000000        83919.207297345958     
   581.00000000000000        104271.00684615213     
   642.00000000000000        109503.92773892745     
   693.50000000000000        114108.66486303827     
   760.00000000000000        135676.69205098212     
   837.50000000000000        157335.41876644213     
   907.50000000000000        174144.22232618331     
   970.00000000000000        187908.81968540812     
   1032.5000000000000        200947.23545376238     
   1086.5000000000000        208470.09908753404     
   1154.0000000000000        221782.20077177903     
   1237.5000000000000        229110.55732050666     
   1312.5000000000000        233068.13585296713     
   1400.0000000000000        235629.60474336846     
   1500.0000000000000        236563.16072420022     
   1600.0000000000000        237286.94886978285     
   1700.0000000000000        237661.46904198002     
   1800.0000000000000        238091.49176686653     
   1900.0000000000000        238665.33717938437     
   2000.0000000000000        239335.86760744627     
   2125.0000000000000        240156.23636844044     
   2298.5000000000000        240375.47186589913     
   2445.5000000000000        240537.16100939733     
   2645.0000000000000        240792.10905608538     
   2941.5000000000000        240844.20217400053     
   3256.0000000000000        240854.14014265290     
   3592.5000000000000        240854.31888692212     
   3895.0000000000000        240854.37323356947     
   4285.0000000000000        240854.72207257300     
   4745.0000000000000        240854.76085790928     
   5160.0000000000000        240854.76259284187     
   5647.5000000000000        240854.76310068913     
   6157.5000000000000        240854.76317263316     
   6690.0000000000000        240854.76317763963     
   7320.0000000000000        240854.76317766972     
   7982.5000000000000        240854.76317768820     
   8582.5000000000000        240854.76317768879     
   9100.0000000000000        240854.76317768884     
   9500.0000000000000        240854.76317768884     
   10025.000000000000        240854.76317768884     
   10810.000000000000        240854.76317768884     
   11545.000000000000        240854.76317768884     
   12330.000000000000        240854.76317768884     
   13045.000000000000        240854.76317768884     
   13885.000000000000        240854.76317768884     
   14735.000000000000        240854.76317768884     
   20.000000000000000        91.861987510217318     
   70.000000000000000        1340.3775674641570     
   130.00000000000000        4719.9706512886059     
   190.00000000000000        10660.414887650641     
   250.00000000000000        19151.365948407678     
   305.00000000000000        28083.858286091032     
   355.00000000000000        38681.531151094052     
   410.00000000000000        53811.370592298139     
   467.50000000000000        69049.603937401422     
   520.00000000000000        83921.939288824797     
   581.00000000000000        104275.07924470010     
   642.00000000000000        109507.03525519923     
   693.50000000000000        114110.80752833493     
   760.00000000000000        135682.13530484677     
   837.50000000000000        157346.07110443604     
   907.50000000000000        174159.53085511571     
   970.00000000000000        187928.34061410505     
   1032.5000000000000        200971.08096758751     
   1086.5000000000000        208496.54096748523     
   1154.0000000000000        221813.34736802374     
   1237.5000000000000        229143.99020458962     
   1312.5000000000000        233102.41951055042     
   1400.0000000000000        235664.24020587644     
   1500.0000000000000        236597.85387339085     
   1600.0000000000000        237321.71181558218     
   1700.0000000000000        237696.25753903607     
   1800.0000000000000        238126.35027829473     
   1900.0000000000000        238700.35026252345     
   2000.0000000000000        239371.17829496169     
   2125.0000000000000        240192.07272374624     
   2298.5000000000000        240411.45918963355     
   2445.5000000000000        240573.28102850536     
   2645.0000000000000        240828.46157811731     
   2941.5000000000000        240880.60150477241     
   3256.0000000000000        240890.54630578912     
   3592.5000000000000        240890.72511169291     
   3895.0000000000000        240890.77948253517     
   4285.0000000000000        240891.12881677260     
   4745.0000000000000        240891.16766612753     
   5160.0000000000000        240891.16940323685     
   5647.5000000000000        240891.16991200196     
   6157.5000000000000        240891.16998410309     
   6690.0000000000000        240891.16998912039     
   7320.0000000000000        240891.16998915054     
   7982.5000000000000        240891.16998916908     
   8582.5000000000000        240891.16998916966     
   9100.0000000000000        240891.16998916972     
   9500.0000000000000        240891.16998916972     
   10025.000000000000        240891.16998916972     
   10810.000000000000        240891.16998916972     
   11545.000000000000        240891.16998916972     
   12330.000000000000        240891.16998916972     
   13045.000000000000        240891.16998916972     
   13885.000000000000        240891.16998916972     
   14735.000000000000        240891.16998916972     
   20.000000000000000        91.863007897267110     
   70.000000000000000        1340.3612630897983     
   130.00000000000000        4719.8996703389130     
   190.00000000000000        10660.253729504082     
   250.00000000000000        19151.199282804253     
   305.00000000000000        28083.807177540402     
   355.00000000000000        38681.731975409144     
   410.00000000000000        53812.093011913494     
   467.50000000000000        69051.000313350349     
   520.00000000000000        83924.125513222330     
   581.00000000000000        104278.30292183814     
   642.00000000000000        109509.46187353412     
   693.50000000000000        114112.43994203229     
   760.00000000000000        135686.23780684132     
   837.50000000000000        157354.00121483931     
   907.50000000000000        174170.88963488190     
   970.00000000000000        187942.81147502616     
   1032.5000000000000        200988.74880295724     
   1086.5000000000000        208516.12900068174     
   1154.0000000000000        221836.41047934967     
   1237.5000000000000        229168.74711064532     
   1312.5000000000000        233127.81347967574     
   1400.0000000000000        235689.91707942079     
   1500.0000000000000        236623.58839428597     
   1600.0000000000000        237347.50891498121     
   1700.0000000000000        237722.08039694186     
   1800.0000000000000        238152.23058419517     
   1900.0000000000000        238726.34606922744     
   2000.0000000000000        239397.39198096559     
   2125.0000000000000        240218.67520363349     
   2298.5000000000000        240438.17514071518     
   2445.5000000000000        240600.09608325994     
   2645.0000000000000        240855.44922461043     
   2941.5000000000000        240907.62381895600     
   3256.0000000000000        240917.57360811069     
   3592.5000000000000        240917.75246394900     
   3895.0000000000000        240917.80685383049     
   4285.0000000000000        240918.15655529508     
   4745.0000000000000        240918.19545223319     
   5160.0000000000000        240918.19719093866     
   5647.5000000000000        240918.19770038375     
   6157.5000000000000        240918.19777260179     
   6690.0000000000000        240918.19777762709     
   7320.0000000000000        240918.19777765727     
   7982.5000000000000        240918.19777767584     
   8582.5000000000000        240918.19777767643     
   9100.0000000000000        240918.19777767648     
   9500.0000000000000        240918.19777767648     
   10025.000000000000        240918.19777767648     
   10810.000000000000        240918.19777767648     
   11545.000000000000        240918.19777767648     
   12330.000000000000        240918.19777767648     
   13045.000000000000        240918.19777767648     
   13885.000000000000        240918.19777767648     
   14735.000000000000        240918.19777767648     
   20.000000000000000        91.864033394629274     
   70.000000000000000        1340.3587841224123     
   130.00000000000000        4719.8878769344228     
   190.00000000000000        10660.221579888070     
   250.00000000000000        19151.225105501377     
   305.00000000000000        28083.972663523036     
   355.00000000000000        38682.130487400347     
   410.00000000000000        53812.914103957854     
   467.50000000000000        69052.346029581240     
   520.00000000000000        83926.070895382334     
   581.00000000000000        104281.05858062736     
   642.00000000000000        109511.54406720265     
   693.50000000000000        114113.84993120788     
   760.00000000000000        135689.54518188740     
   837.50000000000000        157360.21084883204     
   907.50000000000000        174179.71009417207     
   970.00000000000000        187954.00268541861     
   1032.5000000000000        201002.37842118219     
   1086.5000000000000        208531.22205711599     
   1154.0000000000000        221854.14852596694     
   1237.5000000000000        229187.77674330081     
   1312.5000000000000        233147.33144389509     
   1400.0000000000000        235709.66129569360     
   1500.0000000000000        236643.39343754068     
   1600.0000000000000        237367.37202276316     
   1700.0000000000000        237741.97075940843     
   1800.0000000000000        238172.16776200396     
   1900.0000000000000        238746.37000844983     
   2000.0000000000000        239417.57935341593     
   2125.0000000000000        240239.15888437559     
   2298.5000000000000        240458.74665690007     
   2445.5000000000000        240620.74396492500     
   2645.0000000000000        240876.22925690154     
   2941.5000000000000        240928.43029891007     
   3256.0000000000000        240938.38381080038     
   3592.5000000000000        240938.56270677125     
   3895.0000000000000        240938.61711144442     
   4285.0000000000000        240938.96709365811     
   4745.0000000000000        240939.00602706583     
   5160.0000000000000        240939.00776697273     
   5647.5000000000000        240939.00827693680     
   6157.5000000000000        240939.00834924454     
   6690.0000000000000        240939.00835427595     
   7320.0000000000000        240939.00835430613     
   7982.5000000000000        240939.00835432473     
   8582.5000000000000        240939.00835432531     
   9100.0000000000000        240939.00835432537     
   9500.0000000000000        240939.00835432537     
   10025.000000000000        240939.00835432537     
   10810.000000000000        240939.00835432537     
   11545.000000000000        240939.00835432537     
   12330.000000000000        240939.00835432537     
   13045.000000000000        240939.00835432537     
   13885.000000000000        240939.00835432537     
   14735.000000000000        240939.00835432537     
