   20.000000000000000        93.939054440159566     
   70.000000000000000        1373.1510736143475     
   130.00000000000000        5035.7044546680654     
   190.00000000000000        11675.942336795135     
   250.00000000000000        21361.870435839886     
   305.00000000000000        31696.959536946208     
   355.00000000000000        44097.059753847345     
   410.00000000000000        62013.901004359759     
   467.50000000000000        80212.141609660743     
   520.00000000000000        96504.487851897182     
   581.00000000000000        107060.48443503564     
   642.00000000000000        109423.79927298208     
   693.50000000000000        111510.63202411222     
   760.00000000000000        119709.78055948779     
   837.50000000000000        142479.26066525246     
   907.50000000000000        161637.72541013994     
   970.00000000000000        172950.85669068465     
   1032.5000000000000        185398.87546383368     
   1086.5000000000000        191309.86174888190     
   1154.0000000000000        212411.24554055580     
   1237.5000000000000        222756.49589964139     
   1312.5000000000000        227356.63144153228     
   1400.0000000000000        230667.59151951369     
   1500.0000000000000        232420.66798256055     
   1600.0000000000000        233874.60390675839     
   1700.0000000000000        234661.53092718250     
   1800.0000000000000        235549.24027604776     
   1900.0000000000000        236202.57778148321     
   2000.0000000000000        237106.80794634760     
   2125.0000000000000        237507.34915651605     
   2298.5000000000000        237527.34768749896     
   2445.5000000000000        237541.66103484639     
   2645.0000000000000        238238.82941172388     
   2941.5000000000000        238432.16161480683     
   3256.0000000000000        238459.78607780841     
   3592.5000000000000        238459.99745101464     
   3895.0000000000000        238460.21264715507     
   4285.0000000000000        238462.42515208220     
   4745.0000000000000        238462.57172778007     
   5160.0000000000000        238462.57727171981     
   5647.5000000000000        238462.58288045260     
   6157.5000000000000        238462.58342149970     
   6690.0000000000000        238462.58348091715     
   7320.0000000000000        238462.58348137577     
   7982.5000000000000        238462.58348190083     
   8582.5000000000000        238462.58348192321     
   9100.0000000000000        238462.58348192577     
   9500.0000000000000        238462.58348192615     
   10025.000000000000        238462.58348192624     
   10810.000000000000        238462.58348192624     
   11545.000000000000        238462.58348192624     
   12330.000000000000        238462.58348192624     
   13045.000000000000        238462.58348192624     
   13885.000000000000        238462.58348192624     
   14735.000000000000        238462.58348192624     
   20.000000000000000        95.307047297014265     
   70.000000000000000        1398.0969865445331     
   130.00000000000000        5084.4237218374619     
   190.00000000000000        11741.674292822896     
   250.00000000000000        21443.459407406710     
   305.00000000000000        31793.487402696548     
   355.00000000000000        44210.487920636508     
   410.00000000000000        62149.950258825411     
   467.50000000000000        80381.087090084577     
   520.00000000000000        96850.237476479000     
   581.00000000000000        108036.56091296428     
   642.00000000000000        110435.53941816665     
   693.50000000000000        112546.72439241795     
   760.00000000000000        121367.33039496318     
   837.50000000000000        144380.67881234037     
   907.50000000000000        163627.21504409285     
   970.00000000000000        175147.56104084704     
   1032.5000000000000        187740.72985355265     
   1086.5000000000000        193774.68803406108     
   1154.0000000000000        214856.40574414263     
   1237.5000000000000        225358.49796691645     
   1312.5000000000000        230288.99124007611     
   1400.0000000000000        233832.39631473523     
   1500.0000000000000        235600.29337997225     
   1600.0000000000000        237062.70203693624     
   1700.0000000000000        237854.82983034410     
   1800.0000000000000        238747.48463550268     
   1900.0000000000000        239428.01674275269     
   2000.0000000000000        240348.14925172919     
   2125.0000000000000        240773.99648450688     
   2298.5000000000000        240798.81764281471     
   2445.5000000000000        240816.80685937230     
   2645.0000000000000        241514.76660412122     
   2941.5000000000000        241707.05288450111     
   3256.0000000000000        241734.89676327369     
   3592.5000000000000        241735.11275509367     
   3895.0000000000000        241735.33355069195     
   4285.0000000000000        241737.52875798460     
   4745.0000000000000        241737.67446512196     
   5160.0000000000000        241737.68002692758     
   5647.5000000000000        241737.68558078093     
   6157.5000000000000        241737.68611896646     
   6690.0000000000000        241737.68617787739     
   7320.0000000000000        241737.68617833874     
   7982.5000000000000        241737.68617885676     
   8582.5000000000000        241737.68617887879     
   9100.0000000000000        241737.68617888133     
   9500.0000000000000        241737.68617888170     
   10025.000000000000        241737.68617888179     
   10810.000000000000        241737.68617888179     
   11545.000000000000        241737.68617888179     
   12330.000000000000        241737.68617888179     
   13045.000000000000        241737.68617888179     
   13885.000000000000        241737.68617888179     
   14735.000000000000        241737.68617888179     
   20.000000000000000        95.344703154354477     
   70.000000000000000        1398.7320131042356     
   130.00000000000000        5087.2947964528539     
   190.00000000000000        11749.873445149397     
   250.00000000000000        21459.997149860901     
   305.00000000000000        31819.179322856235     
   355.00000000000000        44246.413182444587     
   410.00000000000000        62196.981565008631     
   467.50000000000000        80437.609622313787     
   520.00000000000000        96914.557891055330     
   581.00000000000000        108108.53942605862     
   642.00000000000000        110507.42532820180     
   693.50000000000000        112618.52086097938     
   760.00000000000000        121446.95718008814     
   837.50000000000000        144461.29242560299     
   907.50000000000000        163705.65096292575     
   970.00000000000000        175229.34064833718     
   1032.5000000000000        187823.45600603893     
   1086.5000000000000        193859.22745344412     
   1154.0000000000000        214933.88666000176     
   1237.5000000000000        225437.33312632891     
   1312.5000000000000        230374.43788712664     
   1400.0000000000000        233926.31989881294     
   1500.0000000000000        235700.78229704770     
   1600.0000000000000        237168.28096198160     
   1700.0000000000000        237963.83438545026     
   1800.0000000000000        238859.02525618926     
   1900.0000000000000        239540.63797858194     
   2000.0000000000000        240461.05927393594     
   2125.0000000000000        240887.26529343883     
   2298.5000000000000        240912.17464705405     
   2445.5000000000000        240930.22835885451     
   2645.0000000000000        241627.57129096330     
   2941.5000000000000        241819.69098230425     
   3256.0000000000000        241847.53878163319     
   3592.5000000000000        241847.75565754838     
   3895.0000000000000        241847.97751159573     
   4285.0000000000000        241850.16928509122     
   4745.0000000000000        241850.31473725312     
   5160.0000000000000        241850.32029530223     
   5647.5000000000000        241850.32583849804     
   6157.5000000000000        241850.32637545830     
   6690.0000000000000        241850.32643423168     
   7320.0000000000000        241850.32643469336     
   7982.5000000000000        241850.32643520978     
   8582.5000000000000        241850.32643523172     
   9100.0000000000000        241850.32643523422     
   9500.0000000000000        241850.32643523460     
   10025.000000000000        241850.32643523469     
   10810.000000000000        241850.32643523469     
   11545.000000000000        241850.32643523469     
   12330.000000000000        241850.32643523469     
   13045.000000000000        241850.32643523469     
   13885.000000000000        241850.32643523469     
   14735.000000000000        241850.32643523469     
   20.000000000000000        95.352701378801228     
   70.000000000000000        1398.9283699251116     
   130.00000000000000        5088.1530445280059     
   190.00000000000000        11752.133482792391     
   250.00000000000000        21464.223692668544     
   305.00000000000000        31825.309960244187     
   355.00000000000000        44254.329880408965     
   410.00000000000000        62206.094030634631     
   467.50000000000000        80447.370651651727     
   520.00000000000000        96924.802117353509     
   581.00000000000000        108120.30819905817     
   642.00000000000000        110519.18657129747     
   693.50000000000000        112630.28014951787     
   760.00000000000000        121460.12548750169     
   837.50000000000000        144478.52846369488     
   907.50000000000000        163727.04446643338     
   970.00000000000000        175251.88241792013     
   1032.5000000000000        187848.91907237950     
   1086.5000000000000        193885.76110224525     
   1154.0000000000000        214973.97282875751     
   1237.5000000000000        225480.87920815690     
   1312.5000000000000        230418.91662511198     
   1400.0000000000000        233972.00943996178     
   1500.0000000000000        235747.74224433175     
   1600.0000000000000        237216.09580683350     
   1700.0000000000000        238012.30990761847     
   1800.0000000000000        238907.79984024368     
   1900.0000000000000        239589.49430864537     
   2000.0000000000000        240510.21252381979     
   2125.0000000000000        240936.51409235047     
   2298.5000000000000        240961.43524429129     
   2445.5000000000000        240979.49837300755     
   2645.0000000000000        241678.10066369103     
   2941.5000000000000        241870.55209097243     
   3256.0000000000000        241898.41703219834     
   3592.5000000000000        241898.63396751799     
   3895.0000000000000        241898.85589260975     
   4285.0000000000000        241901.05408092812     
   4745.0000000000000        241901.20002251383     
   5160.0000000000000        241901.20558936155     
   5647.5000000000000        241901.21115319274     
   6157.5000000000000        241901.21169245895     
   6690.0000000000000        241901.21175148280     
   7320.0000000000000        241901.21175194468     
   7982.5000000000000        241901.21175246415     
   8582.5000000000000        241901.21175248624     
   9100.0000000000000        241901.21175248877     
   9500.0000000000000        241901.21175248915     
   10025.000000000000        241901.21175248924     
   10810.000000000000        241901.21175248924     
   11545.000000000000        241901.21175248924     
   12330.000000000000        241901.21175248924     
   13045.000000000000        241901.21175248924     
   13885.000000000000        241901.21175248924     
   14735.000000000000        241901.21175248924     
   20.000000000000000        95.360113378747656     
   70.000000000000000        1399.0886888586763     
   130.00000000000000        5088.8399396386258     
   190.00000000000000        11753.913649608501     
   250.00000000000000        21467.576484612946     
   305.00000000000000        31830.237220808714     
   355.00000000000000        44260.875484741075     
   410.00000000000000        62214.338510741763     
   467.50000000000000        80457.221469616212     
   520.00000000000000        96936.089083307714     
   581.00000000000000        108132.99568432047     
   642.00000000000000        110531.91989497600     
   693.50000000000000        112643.06573062693     
   760.00000000000000        121474.27460124194     
   837.50000000000000        144497.59012404334     
   907.50000000000000        163750.66597932458     
   970.00000000000000        175277.40065074744     
   1032.5000000000000        187877.61239608773     
   1086.5000000000000        193915.74626338269     
   1154.0000000000000        215014.99861337509     
   1237.5000000000000        225525.95147108220     
   1312.5000000000000        230465.57127321244     
   1400.0000000000000        234020.03197572759     
   1500.0000000000000        235796.83373465302     
   1600.0000000000000        237265.98599749515     
   1700.0000000000000        238062.75300873810     
   1800.0000000000000        238958.61861846116     
   1900.0000000000000        239640.54459832248     
   2000.0000000000000        240561.71213301664     
   2125.0000000000000        240988.19577857363     
   2298.5000000000000        241013.13049063977     
   2445.5000000000000        241031.20592899926     
   2645.0000000000000        241730.75506825111     
   2941.5000000000000        241923.47054029454     
   3256.0000000000000        241951.36038646905     
   3592.5000000000000        241951.57746029960     
   3895.0000000000000        241951.79954146029     
   4285.0000000000000        241954.00252563090     
   4745.0000000000000        241954.14882485900     
   5160.0000000000000        241954.15440137836     
   5647.5000000000000        241954.15998080204     
   6157.5000000000000        241954.16052176742     
   6690.0000000000000        241954.16058098403     
   7320.0000000000000        241954.16058144666     
   7982.5000000000000        241954.16058196838     
   8582.5000000000000        241954.16058199055     
   9100.0000000000000        241954.16058199308     
   9500.0000000000000        241954.16058199346     
   10025.000000000000        241954.16058199355     
   10810.000000000000        241954.16058199355     
   11545.000000000000        241954.16058199355     
   12330.000000000000        241954.16058199355     
   13045.000000000000        241954.16058199355     
   13885.000000000000        241954.16058199355     
   14735.000000000000        241954.16058199355     
   20.000000000000000        95.367735299979017     
   70.000000000000000        1399.2348045844180     
   130.00000000000000        5089.4618415825562     
   190.00000000000000        11755.535037027917     
   250.00000000000000        21470.682788759084     
   305.00000000000000        31834.904778453922     
   355.00000000000000        44267.236630098589     
   410.00000000000000        62222.969042907236     
   467.50000000000000        80468.136288090260     
   520.00000000000000        96949.072598667655     
   581.00000000000000        108147.44867314378     
   642.00000000000000        110546.40760464921     
   693.50000000000000        112657.59421864638     
   760.00000000000000        121490.27817864929     
   837.50000000000000        144518.82206663219     
   907.50000000000000        163776.50509461024     
   970.00000000000000        175305.55749177031     
   1032.5000000000000        187909.05626032327     
   1086.5000000000000        193948.62718759367     
   1154.0000000000000        215057.54121444144     
   1237.5000000000000        225572.73371532961     
   1312.5000000000000        230514.37636495579     
   1400.0000000000000        234070.43539605051     
   1500.0000000000000        235848.31576122899     
   1600.0000000000000        237318.33005244980     
   1700.0000000000000        238115.65421355207     
   1800.0000000000000        239011.98532812329     
   1900.0000000000000        239694.23732271374     
   2000.0000000000000        240615.92060969170     
   2125.0000000000000        241042.63185754392     
   2298.5000000000000        241067.58269147383     
   2445.5000000000000        241085.67297903902     
   2645.0000000000000        241786.01764963215     
   2941.5000000000000        241978.96210775961     
   3256.0000000000000        242006.87986133702     
   3592.5000000000000        242007.09713250806     
   3895.0000000000000        242007.31943598698     
   4285.0000000000000        242009.52641925029     
   4745.0000000000000        242009.67301311300     
   5160.0000000000000        242009.67859937102     
   5647.5000000000000        242009.68419192650     
   6157.5000000000000        242009.68473429896     
   6690.0000000000000        242009.68479367893     
   7320.0000000000000        242009.68479414255     
   7982.5000000000000        242009.68479466607     
   8582.5000000000000        242009.68479468834     
   9100.0000000000000        242009.68479469090     
   9500.0000000000000        242009.68479469127     
   10025.000000000000        242009.68479469136     
   10810.000000000000        242009.68479469136     
   11545.000000000000        242009.68479469136     
   12330.000000000000        242009.68479469136     
   13045.000000000000        242009.68479469136     
   13885.000000000000        242009.68479469136     
   14735.000000000000        242009.68479469136     
   20.000000000000000        95.375919553155157     
   70.000000000000000        1399.3800658010539     
   130.00000000000000        5090.0788452628885     
   190.00000000000000        11757.158778705645     
   250.00000000000000        21473.843739802636     
   305.00000000000000        31839.722922741654     
   355.00000000000000        44274.064647396503     
   410.00000000000000        62232.451024159185     
   467.50000000000000        80480.372069349338     
   520.00000000000000        96963.790447405074     
   581.00000000000000        108163.76588897125     
   642.00000000000000        110562.77233198189     
   693.50000000000000        112674.01402969471     
   760.00000000000000        121508.33170348201     
   837.50000000000000        144542.20299345240     
   907.50000000000000        163804.42144442658     
   970.00000000000000        175336.02473575354     
   1032.5000000000000        187942.84533526000     
   1086.5000000000000        193983.94128184160     
   1154.0000000000000        215101.65150743173     
   1237.5000000000000        225621.16157675482     
   1312.5000000000000        230565.09711136835     
   1400.0000000000000        234122.99598624118     
   1500.0000000000000        235902.04611097436     
   1600.0000000000000        237373.02527310955     
   1700.0000000000000        238170.95419453172     
   1800.0000000000000        239067.83381403246     
   1900.0000000000000        239750.47108728901     
   2000.0000000000000        240672.69919540320     
   2125.0000000000000        241099.66211459527     
   2298.5000000000000        241124.63165424269     
   2445.5000000000000        241142.73885476220     
   2645.0000000000000        241843.79026752681     
   2941.5000000000000        242036.94204408053     
   3256.0000000000000        242064.88879805998     
   3592.5000000000000        242065.10630863081     
   3895.0000000000000        242065.32888366052     
   4285.0000000000000        242067.53939762467     
   4745.0000000000000        242067.68624974048     
   5160.0000000000000        242067.69184557852     
   5647.5000000000000        242067.69744981019     
   6157.5000000000000        242067.69799341966     
   6690.0000000000000        242067.69805294534     
   7320.0000000000000        242067.69805341001     
   7982.5000000000000        242067.69805393511     
   8582.5000000000000        242067.69805395743     
   9100.0000000000000        242067.69805395999     
   9500.0000000000000        242067.69805396037     
   10025.000000000000        242067.69805396046     
   10810.000000000000        242067.69805396046     
   11545.000000000000        242067.69805396046     
   12330.000000000000        242067.69805396046     
   13045.000000000000        242067.69805396046     
   13885.000000000000        242067.69805396046     
   14735.000000000000        242067.69805396046     
   20.000000000000000        95.384682202636725     
   70.000000000000000        1399.5305053390637     
   130.00000000000000        5090.7177992661909     
   190.00000000000000        11758.849458954453     
   250.00000000000000        21477.157689567310     
   305.00000000000000        31844.804716804832     
   355.00000000000000        44281.214830315228     
   410.00000000000000        62242.512139936087     
   467.50000000000000        80493.475782715963     
   520.00000000000000        96979.638284322005     
   581.00000000000000        108181.33359334357     
   642.00000000000000        110580.38441046036     
   693.50000000000000        112691.67524091020     
   760.00000000000000        121527.75907488060     
   837.50000000000000        144566.97082761760     
   907.50000000000000        163833.62924058779     
   970.00000000000000        175367.91203126858     
   1032.5000000000000        187978.05079906233     
   1086.5000000000000        194020.71848989063     
   1154.0000000000000        215146.63683477021     
   1237.5000000000000        225670.49634142924     
   1312.5000000000000        230616.90566615859     
   1400.0000000000000        234176.82712904777     
   1500.0000000000000        235957.13987065793     
   1600.0000000000000        237429.17228845254     
   1700.0000000000000        238227.75437268018     
   1800.0000000000000        239125.24264496833     
   1900.0000000000000        239808.30255291375     
   2000.0000000000000        240731.08853669552     
   2125.0000000000000        241158.31677405769     
   2298.5000000000000        241183.30694788491     
   2445.5000000000000        241201.43257939306     
   2645.0000000000000        241903.13340925580     
   2941.5000000000000        242096.47824183290     
   3256.0000000000000        242124.45437601011     
   3592.5000000000000        242124.67215380410     
   3895.0000000000000        242124.89503315283     
   4285.0000000000000        242127.10877564177     
   4745.0000000000000        242127.25586277238     
   5160.0000000000000        242127.26146799501     
   5647.5000000000000        242127.26708295906     
   6157.5000000000000        242127.26762769648     
   6690.0000000000000        242127.26768735633     
   7320.0000000000000        242127.26768782214     
   7982.5000000000000        242127.26768834869     
   8582.5000000000000        242127.26768837110     
   9100.0000000000000        242127.26768837366     
   9500.0000000000000        242127.26768837404     
   10025.000000000000        242127.26768837412     
   10810.000000000000        242127.26768837412     
   11545.000000000000        242127.26768837412     
   12330.000000000000        242127.26768837412     
   13045.000000000000        242127.26768837412     
   13885.000000000000        242127.26768837412     
   14735.000000000000        242127.26768837412     
   20.000000000000000        95.394048246259771     
   70.000000000000000        1399.6894731622008     
   130.00000000000000        5091.3936373122478     
   190.00000000000000        11760.643817791713     
   250.00000000000000        21480.687390498373     
   305.00000000000000        31850.223062136629     
   355.00000000000000        44288.969859143872     
   410.00000000000000        62253.427230976020     
   467.50000000000000        80507.649590651403     
   520.00000000000000        96996.734942752824     
   581.00000000000000        108200.26874123968     
   642.00000000000000        110599.34764871046     
   693.50000000000000        112710.66974009947     
   760.00000000000000        121548.64225793495     
   837.50000000000000        144593.15725352452     
   907.50000000000000        163864.14589480936     
   970.00000000000000        175401.17597488273     
   1032.5000000000000        188014.60798534917     
   1086.5000000000000        194058.87268371199     
   1154.0000000000000        215192.56526839171     
   1237.5000000000000        225720.70938663412     
   1312.5000000000000        230669.74888699545     
   1400.0000000000000        234231.84620083711     
   1500.0000000000000        236013.52032627061     
   1600.0000000000000        237486.69098425048     
   1700.0000000000000        238285.97778392929     
   1800.0000000000000        239184.12476537604     
   1900.0000000000000        239867.63208728889     
   2000.0000000000000        240790.97966529155     
   2125.0000000000000        241218.48060373581     
   2298.5000000000000        241243.49305188283     
   2445.5000000000000        241261.63834265052     
   2645.0000000000000        241963.94847373734     
   2941.5000000000000        242157.47583270143     
   3256.0000000000000        242185.48125507127     
   3592.5000000000000        242185.69932036247     
   3895.0000000000000        242185.92252844566     
   4285.0000000000000        242188.13928894507     
   4745.0000000000000        242188.28659512548     
   5160.0000000000000        242188.29220951788     
   5647.5000000000000        242188.29783455248     
   6157.5000000000000        242188.29838034252     
   6690.0000000000000        242188.29844012839     
   7320.0000000000000        242188.29844059533     
   7982.5000000000000        242188.29844112322     
   8582.5000000000000        242188.29844114569     
   9100.0000000000000        242188.29844114828     
   9500.0000000000000        242188.29844114865     
   10025.000000000000        242188.29844114874     
   10810.000000000000        242188.29844114874     
   11545.000000000000        242188.29844114874     
   12330.000000000000        242188.29844114874     
   13045.000000000000        242188.29844114874     
   13885.000000000000        242188.29844114874     
   14735.000000000000        242188.29844114874     
   20.000000000000000        95.403987229392968     
   70.000000000000000        1399.8583062169594     
   130.00000000000000        5092.1122368661572     
   190.00000000000000        11762.554451432374     
   250.00000000000000        21484.454321050198     
   305.00000000000000        31856.026314792576     
   355.00000000000000        44297.103028184480     
   410.00000000000000        62264.861142325251     
   467.50000000000000        80522.500192889420     
   520.00000000000000        97014.632003862920     
   581.00000000000000        108220.11338650280     
   642.00000000000000        110619.22944371900     
   693.50000000000000        112730.59108592957     
   760.00000000000000        121570.56669787911     
   837.50000000000000        144620.32615690722     
   907.50000000000000        163895.53035444804     
   970.00000000000000        175435.34028246527     
   1032.5000000000000        188052.03033362873     
   1086.5000000000000        194097.90382616848     
   1154.0000000000000        215239.03790646780     
   1237.5000000000000        225771.46009152365     
   1312.5000000000000        230723.21150298437     
   1400.0000000000000        234287.62154350895     
   1500.0000000000000        236070.74995777596     
   1600.0000000000000        237545.13433475528     
   1700.0000000000000        238345.17426519428     
   1800.0000000000000        239244.02040930578     
   1900.0000000000000        239927.99226009706     
   2000.0000000000000        240851.90050361110     
   2125.0000000000000        241279.67818002283     
   2298.5000000000000        241304.71429561713     
   2445.5000000000000        241322.88024825812     
   2645.0000000000000        242025.77001165954     
   2941.5000000000000        242219.47194193836     
   3256.0000000000000        242247.50641077704     
   3592.5000000000000        242247.72477860888     
   3895.0000000000000        242247.94833371291     
   4285.0000000000000        242250.16795695931     
   4745.0000000000000        242250.31547052838     
   5160.0000000000000        242250.32109387932     
   5647.5000000000000        242250.32672849225     
   6157.5000000000000        242250.32727527962     
   6690.0000000000000        242250.32733518540     
   7320.0000000000000        242250.32733565348     
   7982.5000000000000        242250.32733618261     
   8582.5000000000000        242250.32733620514     
   9100.0000000000000        242250.32733620773     
   9500.0000000000000        242250.32733620811     
   10025.000000000000        242250.32733620820     
   10810.000000000000        242250.32733620820     
   11545.000000000000        242250.32733620820     
   12330.000000000000        242250.32733620820     
   13045.000000000000        242250.32733620820     
   13885.000000000000        242250.32733620820     
   14735.000000000000        242250.32733620820     
   20.000000000000000        95.414609384575598     
   70.000000000000000        1400.0399972112041     
   130.00000000000000        5092.8868911589898     
   190.00000000000000        11764.617392989094     
   250.00000000000000        21488.518551907011     
   305.00000000000000        31862.282789607285     
   355.00000000000000        44305.969273711919     
   410.00000000000000        62277.201279437642     
   467.50000000000000        80538.395824948762     
   520.00000000000000        97033.679301016833     
   581.00000000000000        108241.23672892757     
   642.00000000000000        110640.40273646494     
   693.50000000000000        112751.81522478964     
   760.00000000000000        121593.92481505484     
   837.50000000000000        144648.83571069277     
   907.50000000000000        163928.11838085164     
   970.00000000000000        175470.71770288772     
   1032.5000000000000        188090.61680340758     
   1086.5000000000000        194138.10309488350     
   1154.0000000000000        215286.38454440798     
   1237.5000000000000        225823.00897284041     
   1312.5000000000000        230777.57627113748     
   1400.0000000000000        234344.44075005400     
   1500.0000000000000        236129.13765073006     
   1600.0000000000000        237604.82466253452     
   1700.0000000000000        238405.67738705454     
   1800.0000000000000        239305.26627621750     
   1900.0000000000000        239989.71626078847     
   2000.0000000000000        240914.17897255230     
   2125.0000000000000        241342.23471065119     
   2298.5000000000000        241367.29603030207     
   2445.5000000000000        241385.48367718936     
   2645.0000000000000        242088.92900861151     
   2941.5000000000000        242282.79873902423     
   3256.0000000000000        242310.86169729455     
   3592.5000000000000        242311.08038174792     
   3895.0000000000000        242311.30430151153     
   4285.0000000000000        242313.52666242968     
   4745.0000000000000        242313.67437420573     
   5160.0000000000000        242313.68000625583     
   5647.5000000000000        242313.68565004307     
   6157.5000000000000        242313.68619778362     
   6690.0000000000000        242313.68625780428     
   7320.0000000000000        242313.68625827346     
   7982.5000000000000        242313.68625880382     
   8582.5000000000000        242313.68625882640     
   9100.0000000000000        242313.68625882900     
   9500.0000000000000        242313.68625882937     
   10025.000000000000        242313.68625882946     
   10810.000000000000        242313.68625882946     
   11545.000000000000        242313.68625882946     
   12330.000000000000        242313.68625882946     
   13045.000000000000        242313.68625882946     
   13885.000000000000        242313.68625882946     
   14735.000000000000        242313.68625882946     
   20.000000000000000        95.425815570387599     
   70.000000000000000        1400.2337788097609     
   130.00000000000000        5093.7141701525206     
   190.00000000000000        11766.820491720138     
   250.00000000000000        21492.850832847602     
   305.00000000000000        31868.938497730298     
   355.00000000000000        44315.323757996070     
   410.00000000000000        62290.180850906669     
   467.50000000000000        80555.024828690104     
   520.00000000000000        97053.538985366307     
   581.00000000000000        108263.27943664795     
   642.00000000000000        110662.48296578485     
   693.50000000000000        112773.93475033803     
   760.00000000000000        121618.28486468928     
   837.50000000000000        144678.26106554744     
   907.50000000000000        163961.50178751818     
   970.00000000000000        175506.89111453979     
   1032.5000000000000        188129.95072259443     
   1086.5000000000000        194179.04794460331     
   1154.0000000000000        215334.22226976932     
   1237.5000000000000        225875.01973087387     
   1312.5000000000000        230832.45918171029     
   1400.0000000000000        234401.89735918629     
   1500.0000000000000        236188.25637036472     
   1600.0000000000000        237665.31674555092     
   1700.0000000000000        238467.03101284913     
   1800.0000000000000        239367.39556216827     
   1900.0000000000000        240052.33410580098     
   2000.0000000000000        240977.34550175731     
   2125.0000000000000        241405.68023135618     
   2298.5000000000000        241430.76792171685     
   2445.5000000000000        241448.97810466407     
   2645.0000000000000        242152.95806556242     
   2941.5000000000000        242346.98962211033     
   3256.0000000000000        242375.08060502654     
   3592.5000000000000        242375.29961667152     
   3895.0000000000000        242375.52391414446     
   4285.0000000000000        242377.74890357704     
   4745.0000000000000        242377.89680555608     
   5160.0000000000000        242377.90244607982     
   5647.5000000000000        242377.90809869129     
   6157.5000000000000        242377.90864734669     
   6690.0000000000000        242377.90870747779     
   7320.0000000000000        242377.90870794808     
   7982.5000000000000        242377.90870847960     
   8582.5000000000000        242377.90870850222     
   9100.0000000000000        242377.90870850481     
   9500.0000000000000        242377.90870850519     
   10025.000000000000        242377.90870850527     
   10810.000000000000        242377.90870850527     
   11545.000000000000        242377.90870850527     
   12330.000000000000        242377.90870850527     
   13045.000000000000        242377.90870850527     
   13885.000000000000        242377.90870850527     
   14735.000000000000        242377.90870850527     
   20.000000000000000        95.437291577096232     
   70.000000000000000        1400.4376539579621     
   130.00000000000000        5094.5861843074490     
   190.00000000000000        11769.138427677166     
   250.00000000000000        21497.384281119448     
   305.00000000000000        31875.847972822063     
   355.00000000000000        44324.944993154946     
   410.00000000000000        62303.440593935549     
   467.50000000000000        80572.008113572752     
   520.00000000000000        97073.792961696614     
   581.00000000000000        108285.76418435619     
   642.00000000000000        110685.00972259635     
   693.50000000000000        112796.50415387530     
   760.00000000000000        121643.14457285388     
   837.50000000000000        144708.13199347793     
   907.50000000000000        163995.26219060467     
   970.00000000000000        175543.44607760513     
   1032.5000000000000        188169.62797166774     
   1086.5000000000000        194220.31933363687     
   1154.0000000000000        215382.17840326924     
   1237.5000000000000        225927.13231133614     
   1312.5000000000000        230887.48441570261     
   1400.0000000000000        234459.49511560184     
   1500.0000000000000        236247.53869590288     
   1600.0000000000000        237725.96863064190     
   1700.0000000000000        238528.55796476480     
   1800.0000000000000        239429.68626121353     
   1900.0000000000000        240115.12236822539     
   2000.0000000000000        241040.68103915555     
   2125.0000000000000        241469.29831425802     
   2298.5000000000000        241494.41214904111     
   2445.5000000000000        241512.64522713533     
   2645.0000000000000        242217.14217362824     
   2941.5000000000000        242411.33085652423     
   3256.0000000000000        242439.44974371360     
   3592.5000000000000        242439.66908261160     
   3895.0000000000000        242439.89375557055     
   4285.0000000000000        242442.12127961425     
   4745.0000000000000        242442.26936477190     
   5160.0000000000000        242442.27501366046     
   5647.5000000000000        242442.28067479789     
   6157.5000000000000        242442.28122433528     
   6690.0000000000000        242442.28128457311     
   7320.0000000000000        242442.28128504450     
   7982.5000000000000        242442.28128557713     
   8582.5000000000000        242442.28128559981     
   9100.0000000000000        242442.28128560242     
   9500.0000000000000        242442.28128560280     
   10025.000000000000        242442.28128560289     
   10810.000000000000        242442.28128560289     
   11545.000000000000        242442.28128560289     
   12330.000000000000        242442.28128560289     
   13045.000000000000        242442.28128560289     
   13885.000000000000        242442.28128560289     
   14735.000000000000        242442.28128560289     
   20.000000000000000        95.449041958059922     
   70.000000000000000        1400.6474935417536     
   130.00000000000000        5095.4837536709383     
   190.00000000000000        11771.519626028412     
   250.00000000000000        21502.031073480484     
   305.00000000000000        31882.934338112569     
   355.00000000000000        44334.865050033608     
   410.00000000000000        62317.112470278858     
   467.50000000000000        80589.443349275229     
   520.00000000000000        97094.538680182945     
   581.00000000000000        108308.78468229742     
   642.00000000000000        110708.07650078449     
   693.50000000000000        112819.61931714055     
   760.00000000000000        121668.59190535899     
   837.50000000000000        144738.54939046493     
   907.50000000000000        164029.50588548640     
   970.00000000000000        175580.48014737674     
   1032.5000000000000        188209.75340794135     
   1086.5000000000000        194262.03784841328     
   1154.0000000000000        215430.40667290479     
   1237.5000000000000        225979.46290298022     
   1312.5000000000000        230942.78470430744     
   1400.0000000000000        234517.42493323330     
   1500.0000000000000        236307.19459252170     
   1600.0000000000000        237787.03092095265     
   1700.0000000000000        238590.51520918758     
   1800.0000000000000        239492.42660929795     
   1900.0000000000000        240178.36448770130     
   2000.0000000000000        241104.46848205288     
   2125.0000000000000        241533.36912697475     
   2298.5000000000000        241558.50978932978     
   2445.5000000000000        241576.76619164704     
   2645.0000000000000        242281.76477177325     
   2941.5000000000000        242476.10637811958     
   3256.0000000000000        242504.25300673392     
   3592.5000000000000        242504.47267937550     
   3895.0000000000000        242504.69773492648     
   4285.0000000000000        242506.92771398710     
   4745.0000000000000        242507.07597633393     
   5160.0000000000000        242507.08163346932     
   5647.5000000000000        242507.08730288618     
   6157.5000000000000        242507.08785327748     
   6690.0000000000000        242507.08791361892     
   7320.0000000000000        242507.08791409142     
   7982.5000000000000        242507.08791462512     
   8582.5000000000000        242507.08791464785     
   9100.0000000000000        242507.08791465047     
   9500.0000000000000        242507.08791465088     
   10025.000000000000        242507.08791465097     
   10810.000000000000        242507.08791465097     
   11545.000000000000        242507.08791465097     
   12330.000000000000        242507.08791465097     
   13045.000000000000        242507.08791465097     
   13885.000000000000        242507.08791465097     
   14735.000000000000        242507.08791465097     
   20.000000000000000        95.461052450141352     
   70.000000000000000        1400.8623722836032     
   130.00000000000000        5096.4027656380067     
   190.00000000000000        11773.955940780457     
   250.00000000000000        21506.785657660392     
   305.00000000000000        31890.157145288846     
   355.00000000000000        44344.949128677203     
   410.00000000000000        62330.962810145866     
   467.50000000000000        80607.088277932373     
   520.00000000000000        97115.525954165583     
   581.00000000000000        108332.09252227079     
   642.00000000000000        110731.43120242908     
   693.50000000000000        112843.01947547263     
   760.00000000000000        121694.36532285808     
   837.50000000000000        144769.25064592328     
   907.50000000000000        164063.97100970242     
   970.00000000000000        175617.73267169681     
   1032.5000000000000        188250.07005314913     
   1086.5000000000000        194303.94594823613     
   1154.0000000000000        215478.68250664973     
   1237.5000000000000        226031.82002517924     
   1312.5000000000000        230998.13396829861     
   1400.0000000000000        234575.46575319205     
   1500.0000000000000        236367.00447069388     
   1600.0000000000000        237848.28365889844     
   1700.0000000000000        238652.68479036225     
   1800.0000000000000        239555.39826798599     
   1900.0000000000000        240241.84192027160     
   2000.0000000000000        241168.48860295687     
   2125.0000000000000        241597.67268667565     
   2298.5000000000000        241622.84082074894     
   2445.5000000000000        241641.12093802323     
   2645.0000000000000        242346.60899723464     
   2941.5000000000000        242541.10011628180     
   3256.0000000000000        242569.27427657181     
   3592.5000000000000        242569.49428854347     
   3895.0000000000000        242569.71973398374     
   4285.0000000000000        242571.95210562673     
   4745.0000000000000        242572.10054050057     
   5160.0000000000000        242572.10620577118     
   5647.5000000000000        242572.11188327061     
   6157.5000000000000        242572.11243449379     
   6690.0000000000000        242572.11249493639     
   7320.0000000000000        242572.11249540999     
   7982.5000000000000        242572.11249594475     
   8582.5000000000000        242572.11249596754     
   9100.0000000000000        242572.11249597016     
   9500.0000000000000        242572.11249597056     
   10025.000000000000        242572.11249597065     
   10810.000000000000        242572.11249597065     
   11545.000000000000        242572.11249597065     
   12330.000000000000        242572.11249597065     
   13045.000000000000        242572.11249597065     
   13885.000000000000        242572.11249597065     
   14735.000000000000        242572.11249597065     
   20.000000000000000        95.473292337675758     
   70.000000000000000        1401.0817050720948     
   130.00000000000000        5097.3408550590957     
   190.00000000000000        11776.442389737473     
   250.00000000000000        21511.637605096348     
   305.00000000000000        31897.567868224087     
   355.00000000000000        44355.274430209283     
   410.00000000000000        62345.136774541992     
   467.50000000000000        80625.092995406085     
   520.00000000000000        97136.899495128455     
   581.00000000000000        108355.82967599256     
   642.00000000000000        110755.20504301027     
   693.50000000000000        112866.82973715763     
   760.00000000000000        121720.59313005875     
   837.50000000000000        144800.36409235868     
   907.50000000000000        164098.79475934512     
   970.00000000000000        175655.33710922839     
   1032.5000000000000        188290.71352718561     
   1086.5000000000000        194346.17855428869     
   1154.0000000000000        215527.16372796177     
   1237.5000000000000        226084.34667274592     
   1312.5000000000000        231053.68240039461     
   1400.0000000000000        234633.75580841405     
   1500.0000000000000        236427.10281451666     
   1600.0000000000000        237909.85688295873     
   1700.0000000000000        238715.19517923205     
   1800.0000000000000        239618.72677773872     
   1900.0000000000000        240305.67954592485     
   2000.0000000000000        241232.86591156828     
   2125.0000000000000        241662.33318046623     
   2298.5000000000000        241687.52933555123     
   2445.5000000000000        241705.83350564074     
   2645.0000000000000        242411.80121890359     
   2941.5000000000000        242606.43908076471     
   3256.0000000000000        242634.64053585133     
   3592.5000000000000        242634.86089172045     
   3895.0000000000000        242635.08673326543     
   4285.0000000000000        242637.32144729415     
   4745.0000000000000        242637.47005098505     
   5160.0000000000000        242637.47572428847     
   5647.5000000000000        242637.48140971083     
   6157.5000000000000        242637.48196174827     
   6690.0000000000000        242637.48202229006     
   7320.0000000000000        242637.48202276477     
   7982.5000000000000        242637.48202330057     
   8582.5000000000000        242637.48202332339     
   9100.0000000000000        242637.48202332601     
   9500.0000000000000        242637.48202332642     
   10025.000000000000        242637.48202332651     
   10810.000000000000        242637.48202332651     
   11545.000000000000        242637.48202332651     
   12330.000000000000        242637.48202332651     
   13045.000000000000        242637.48202332651     
   13885.000000000000        242637.48202332651     
   14735.000000000000        242637.48202332651     
   20.000000000000000        95.485730421979511     
   70.000000000000000        1401.3049777033141     
   130.00000000000000        5098.2958512179966     
   190.00000000000000        11778.973061702458     
   250.00000000000000        21516.574548805056     
   305.00000000000000        31905.059442003319     
   355.00000000000000        44365.773557945598     
   410.00000000000000        62359.478134196113     
   467.50000000000000        80643.296809225867     
   520.00000000000000        97158.491500788470     
   581.00000000000000        108379.82244581038     
   642.00000000000000        110779.22791708035     
   693.50000000000000        112890.88053047720     
   760.00000000000000        121747.09364160601     
   837.50000000000000        144831.70946945841     
   907.50000000000000        164133.79745395773     
   970.00000000000000        175693.11500214858     
   1032.5000000000000        188331.50714562525     
   1086.5000000000000        194388.55922618427     
   1154.0000000000000        215575.69029825559     
   1237.5000000000000        226136.85247129871     
   1312.5000000000000        231109.25786585212     
   1400.0000000000000        234692.10643586027     
   1500.0000000000000        236487.29611379566     
   1600.0000000000000        237971.55237198385     
   1700.0000000000000        238777.84588202386     
   1800.0000000000000        239682.20884852557     
   1900.0000000000000        240369.67336809836     
   2000.0000000000000        241297.39630164599     
   2125.0000000000000        241727.14632641114     
   2298.5000000000000        241752.37095780086     
   2445.5000000000000        241770.69946820659     
   2645.0000000000000        242477.13851802528     
   2941.5000000000000        242671.92076301621     
   3256.0000000000000        242700.14926601126     
   3592.5000000000000        242700.36996955596     
   3895.0000000000000        242700.59621236424     
   4285.0000000000000        242702.83322654324     
   4745.0000000000000        242702.98199595197     
   5160.0000000000000        242702.98767719627     
   5647.5000000000000        242702.99337040671     
   6157.5000000000000        242702.99392324369     
   6690.0000000000000        242702.99398388295     
   7320.0000000000000        242702.99398435873     
   7982.5000000000000        242702.99398489553     
   8582.5000000000000        242702.99398491840     
   9100.0000000000000        242702.99398492102     
   9500.0000000000000        242702.99398492143     
   10025.000000000000        242702.99398492152     
   10810.000000000000        242702.99398492152     
   11545.000000000000        242702.99398492152     
   12330.000000000000        242702.99398492152     
   13045.000000000000        242702.99398492152     
   13885.000000000000        242702.99398492152     
   14735.000000000000        242702.99398492152     
   20.000000000000000        95.498337222689273     
   70.000000000000000        1401.5317140279178     
   130.00000000000000        5099.2657165824630     
   190.00000000000000        11781.543304976987     
   250.00000000000000        21521.588167115311     
   305.00000000000000        31912.705161005153     
   355.00000000000000        44376.439910216395     
   410.00000000000000        62374.085621783168     
   467.50000000000000        80661.782642137157     
   520.00000000000000        97180.381722424339     
   581.00000000000000        108404.14696461463     
   642.00000000000000        110803.60343867357     
   693.50000000000000        112915.30533595770     
   760.00000000000000        121774.00670605271     
   837.50000000000000        144863.42921627581     
   907.50000000000000        164169.12650251223     
   970.00000000000000        175731.21372967883     
   1032.5000000000000        188372.59993595252     
   1086.5000000000000        194431.23439998369     
   1154.0000000000000        215624.42198985413     
   1237.5000000000000        226189.56968195862     
   1312.5000000000000        231165.03660130774     
   1400.0000000000000        234750.70483109940     
   1500.0000000000000        236547.76710540042     
   1600.0000000000000        238033.54884788708     
   1700.0000000000000        238840.81317314971     
   1800.0000000000000        239746.01853750838     
   1900.0000000000000        240433.99684623093     
   2000.0000000000000        241362.25327065581     
   2125.0000000000000        241792.28552311173     
   2298.5000000000000        241817.53905681329     
   2445.5000000000000        241835.89215257729     
   2645.0000000000000        242542.79539995795     
   2941.5000000000000        242737.71992905877     
   3256.0000000000000        242765.97527876601     
   3592.5000000000000        242766.19633315300     
   3895.0000000000000        242766.42298153715     
   4285.0000000000000        242768.66225960670     
   4745.0000000000000        242768.81119208530     
   5160.0000000000000        242768.81688118845     
   5647.5000000000000        242768.82258207060     
   6157.5000000000000        242768.82313569452     
   6690.0000000000000        242768.82319642982     
   7320.0000000000000        242768.82319690668     
   7982.5000000000000        242768.82319744446     
   8582.5000000000000        242768.82319746737     
   9100.0000000000000        242768.82319747002     
   9500.0000000000000        242768.82319747042     
   10025.000000000000        242768.82319747051     
   10810.000000000000        242768.82319747051     
   11545.000000000000        242768.82319747051     
   12330.000000000000        242768.82319747051     
   13045.000000000000        242768.82319747051     
   13885.000000000000        242768.82319747051     
   14735.000000000000        242768.82319747051     
   20.000000000000000        95.511088063555917     
   70.000000000000000        1401.7614756293131     
   130.00000000000000        5100.2485371532402     
   190.00000000000000        11784.147329659700     
   250.00000000000000        21526.670384477857     
   305.00000000000000        31920.464493244683     
   355.00000000000000        44387.265558791914     
   410.00000000000000        62388.859451622666     
   467.50000000000000        80680.454234234916     
   520.00000000000000        97202.469864378028     
   581.00000000000000        108428.69633729102     
   642.00000000000000        110828.18719064236     
   693.50000000000000        112939.91793416752     
   760.00000000000000        121801.12600381364     
   837.50000000000000        144895.32056626276     
   907.50000000000000        164204.58717013200     
   970.00000000000000        175769.43265179024     
   1032.5000000000000        188413.79274018432     
   1086.5000000000000        194474.00514372502     
   1154.0000000000000        215673.17122237963     
   1237.5000000000000        226242.26466034417     
   1312.5000000000000        231220.81032022508     
   1400.0000000000000        234809.32852371570     
   1500.0000000000000        236608.28904943497     
   1600.0000000000000        238095.61592631505     
   1700.0000000000000        238903.86463101814     
   1800.0000000000000        239809.92148604366     
   1900.0000000000000        240498.41513923826     
   2000.0000000000000        241427.20209697419     
   2125.0000000000000        241857.51598828757     
   2298.5000000000000        241882.79872341760     
   2445.5000000000000        241901.17661197903     
   2645.0000000000000        242608.53777129017     
   2941.5000000000000        242803.60268173262     
   3256.0000000000000        242831.88466738019     
   3592.5000000000000        242832.10607523369     
   3895.0000000000000        242832.33313277247     
   4285.0000000000000        242834.57464305210     
   4745.0000000000000        242834.72373630182     
   5160.0000000000000        242834.72943319043     
   5647.5000000000000        242834.73514164286     
   6157.5000000000000        242834.73569604280     
   6690.0000000000000        242834.73575687289     
   7320.0000000000000        242834.73575735083     
   7982.5000000000000        242834.73575788960     
   8582.5000000000000        242834.73575791257     
   9100.0000000000000        242834.73575791522     
   9500.0000000000000        242834.73575791562     
   10025.000000000000        242834.73575791571     
   10810.000000000000        242834.73575791571     
   11545.000000000000        242834.73575791571     
   12330.000000000000        242834.73575791571     
   13045.000000000000        242834.73575791571     
   13885.000000000000        242834.73575791571     
   14735.000000000000        242834.73575791571     
   20.000000000000000        95.523960452434622     
   70.000000000000000        1401.9938663075466     
   130.00000000000000        5101.2426454602837     
   190.00000000000000        11786.781425871626     
   250.00000000000000        21531.808388789286     
   305.00000000000000        31928.294384783905     
   355.00000000000000        44398.186244514422     
   410.00000000000000        62403.742680757474     
   467.50000000000000        80699.246534454418     
   520.00000000000000        97224.686699428523     
   581.00000000000000        108453.39975310575     
   642.00000000000000        110852.93870748568     
   693.50000000000000        112964.71350613968     
   760.00000000000000        121828.45799558453     
   837.50000000000000        144927.39036581930     
   907.50000000000000        164240.18590317492     
   970.00000000000000        175807.78433101659     
   1032.5000000000000        188455.10002114423     
   1086.5000000000000        194516.88689985647     
   1154.0000000000000        215721.98318420310     
   1237.5000000000000        226295.23657661650     
   1312.5000000000000        231276.85094063845     
   1400.0000000000000        234868.24672253948     
   1500.0000000000000        236669.12737465589     
   1600.0000000000000        238158.01600988748     
   1700.0000000000000        238967.26060326441     
   1800.0000000000000        239874.17648577763     
   1900.0000000000000        240563.18666294470     
   2000.0000000000000        241492.50133919474     
   2125.0000000000000        241923.09624846836     
   2298.5000000000000        241948.40848823113     
   2445.5000000000000        241966.81134600824     
   2645.0000000000000        242674.62721497240     
   2941.5000000000000        242869.83845167435     
   3256.0000000000000        242898.14700092160     
   3592.5000000000000        242898.36876445811     
   3895.0000000000000        242898.59623415917     
   4285.0000000000000        242900.83997150412     
   4745.0000000000000        242900.98922363744     
   5160.0000000000000        242900.99492824540     
   5647.5000000000000        242901.00064417819     
   6157.5000000000000        242901.00119934502     
   6690.0000000000000        242901.00126026879     
   7320.0000000000000        242901.00126074781     
   7982.5000000000000        242901.00126128757     
   8582.5000000000000        242901.00126131059     
   9100.0000000000000        242901.00126131324     
   9500.0000000000000        242901.00126131365     
   10025.000000000000        242901.00126131374     
   10810.000000000000        242901.00126131374     
   11545.000000000000        242901.00126131374     
   12330.000000000000        242901.00126131374     
   13045.000000000000        242901.00126131374     
   13885.000000000000        242901.00126131374     
   14735.000000000000        242901.00126131374     
   20.000000000000000        95.536935154187205     
   70.000000000000000        1402.2285367763614     
   130.00000000000000        5102.2465275408522     
   190.00000000000000        11789.440790890221     
   250.00000000000000        21536.993100286174     
   305.00000000000000        31936.211506051324     
   355.00000000000000        44409.212473034662     
   410.00000000000000        62418.800380633656     
   467.50000000000000        80718.232422302070     
   520.00000000000000        97247.105977637344     
   581.00000000000000        108478.32628588291     
   642.00000000000000        110877.89971725602     
   693.50000000000000        112989.70678413265     
   760.00000000000000        121856.00667170026     
   837.50000000000000        144959.64601146991     
   907.50000000000000        164275.93865728087     
   970.00000000000000        175846.28223349311     
   1032.5000000000000        188496.53799106480     
   1086.5000000000000        194559.89545196897     
   1154.0000000000000        215770.84003267984     
   1237.5000000000000        226348.02166060079     
   1312.5000000000000        231332.71824966604     
   1400.0000000000000        234927.01283174689     
   1500.0000000000000        236729.83235140346     
   1600.0000000000000        238220.29681494032     
   1700.0000000000000        239030.54723756626     
   1800.0000000000000        239938.32843762360     
   1900.0000000000000        240627.85604940343     
   2000.0000000000000        241557.69581942572     
   2125.0000000000000        241988.57108984690     
   2298.5000000000000        242013.91305356097     
   2445.5000000000000        242032.34103150896     
   2645.0000000000000        242740.60430777312     
   2941.5000000000000        242935.95289084449     
   3256.0000000000000        242964.28773435202     
   3592.5000000000000        242964.50985545915     
   3895.0000000000000        242964.73773988694     
   4285.0000000000000        242966.98365719937     
   4745.0000000000000        242967.13306627690     
   5160.0000000000000        242967.13877854415     
   5647.5000000000000        242967.14450187809     
   6157.5000000000000        242967.14505780299     
   6690.0000000000000        242967.14511881949     
   7320.0000000000000        242967.14511929959     
   7982.5000000000000        242967.14511984028     
   8582.5000000000000        242967.14511986333     
   9100.0000000000000        242967.14511986598     
   9500.0000000000000        242967.14511986639     
   10025.000000000000        242967.14511986647     
   10810.000000000000        242967.14511986647     
   11545.000000000000        242967.14511986647     
   12330.000000000000        242967.14511986647     
   13045.000000000000        242967.14511986647     
   13885.000000000000        242967.14511986647     
   14735.000000000000        242967.14511986647     
   20.000000000000000        95.549996658852905     
   70.000000000000000        1402.4652117200862     
   130.00000000000000        5103.2589964497975     
   190.00000000000000        11792.122142421107     
   250.00000000000000        21542.227159681650     
   305.00000000000000        31944.157524764629     
   355.00000000000000        44420.273374141543     
   410.00000000000000        62433.872185642918     
   467.50000000000000        80737.233557193074     
   520.00000000000000        97269.543132590930     
   581.00000000000000        108503.28922273417     
   642.00000000000000        110902.91387977893     
   693.50000000000000        113014.76827554066     
   760.00000000000000        121883.64430717655     
   837.50000000000000        144991.96142619514     
   907.50000000000000        164311.71845165433     
   970.00000000000000        175884.79887212056     
   1032.5000000000000        188537.97786116615     
   1086.5000000000000        194602.90161840493     
   1154.0000000000000        215819.63670831951     
   1237.5000000000000        226400.73496014354     
   1312.5000000000000        231388.51817514031     
   1400.0000000000000        234985.72929174890     
   1500.0000000000000        236790.50367644915     
   1600.0000000000000        238282.55585128340     
   1700.0000000000000        239093.82057428226     
   1800.0000000000000        240002.47227287237     
   1900.0000000000000        240692.51791076097     
   2000.0000000000000        241622.88015601537     
   2125.0000000000000        242054.03513513389     
   2298.5000000000000        242079.40704524360     
   2445.5000000000000        242097.86027077434     
   2645.0000000000000        242806.56657821938     
   2941.5000000000000        243002.05132386379     
   3256.0000000000000        243030.41230549908     
   3592.5000000000000        243030.63478573575     
   3895.0000000000000        243030.86308700879     
   4285.0000000000000        243033.11116262624     
   4745.0000000000000        243033.26072706384     
   5160.0000000000000        243033.26644693414     
   5647.5000000000000        243033.27217759832     
   6157.5000000000000        243033.27273427378     
   6690.0000000000000        243033.27279538210     
   7320.0000000000000        243033.27279586325     
   7982.5000000000000        243033.27279640490     
   8582.5000000000000        243033.27279642801     
   9100.0000000000000        243033.27279643065     
   9500.0000000000000        243033.27279643106     
   10025.000000000000        243033.27279643115     
   10810.000000000000        243033.27279643115     
   11545.000000000000        243033.27279643115     
   12330.000000000000        243033.27279643115     
   13045.000000000000        243033.27279643115     
   13885.000000000000        243033.27279643115     
   14735.000000000000        243033.27279643115     
   20.000000000000000        95.563293189025813     
   70.000000000000000        1402.7066044703372     
   130.00000000000000        5104.2918822575684     
   190.00000000000000        11794.859524468648     
   250.00000000000000        21547.568185951219     
   305.00000000000000        31952.310511727192     
   355.00000000000000        44431.639591778156     
   410.00000000000000        62449.314615531453     
   467.50000000000000        80756.637038748217     
   520.00000000000000        97292.399941140044     
   581.00000000000000        108528.71853596480     
   642.00000000000000        110928.36997769977     
   693.50000000000000        113040.24609851894     
   760.00000000000000        121911.73806512375     
   837.50000000000000        145024.67867334009     
   907.50000000000000        164347.83909389100     
   970.00000000000000        175923.64427965181     
   1032.5000000000000        188579.72019252885     
   1086.5000000000000        194646.20569106966     
   1154.0000000000000        215868.65687843596     
   1237.5000000000000        226453.63282664184     
   1312.5000000000000        231444.51928728112     
   1400.0000000000000        235044.69667221376     
   1500.0000000000000        236851.47011955059     
   1600.0000000000000        238345.14342879481     
   1700.0000000000000        239157.44583197066     
   1800.0000000000000        240066.98297197482     
   1900.0000000000000        240757.54831608373     
   2000.0000000000000        241688.42739029109     
   2125.0000000000000        242119.86055724439     
   2298.5000000000000        242145.26292257782     
   2445.5000000000000        242163.74171088426     
   2645.0000000000000        242872.88622012667     
   2941.5000000000000        243068.50547474154     
   3256.0000000000000        243096.89222201609     
   3592.5000000000000        243097.11506528163     
   3895.0000000000000        243097.34378879282     
   4285.0000000000000        243099.59399870803     
   4745.0000000000000        243099.74371691898     
