   20.000000000000000        97.181859323358992     
   70.000000000000000        1374.7532311983427     
   130.00000000000000        4833.1957101670441     
   190.00000000000000        11179.216984474690     
   250.00000000000000        20570.655180106605     
   305.00000000000000        30814.780429521910     
   355.00000000000000        43177.621130510081     
   410.00000000000000        60751.161964110179     
   467.50000000000000        78416.124717498315     
   520.00000000000000        95512.364710920243     
   581.00000000000000        116581.35218918473     
   642.00000000000000        120738.51652820877     
   693.50000000000000        124331.78745424906     
   760.00000000000000        144712.16036005586     
   837.50000000000000        166890.73327712202     
   907.50000000000000        183969.66704222662     
   970.00000000000000        197833.02175012938     
   1032.5000000000000        199615.84529372945     
   1086.5000000000000        207192.19289818715     
   1154.0000000000000        220859.33303051669     
   1237.5000000000000        228159.48570501735     
   1312.5000000000000        232017.69441357045     
   1400.0000000000000        235970.98297864755     
   1500.0000000000000        237700.71039245190     
   1600.0000000000000        239047.56101645308     
   1700.0000000000000        239845.68411163933     
   1800.0000000000000        240699.31414382235     
   1900.0000000000000        241591.19293864339     
   2000.0000000000000        242414.19398969261     
   2125.0000000000000        243243.51739453635     
   2298.5000000000000        243399.68161913371     
   2445.5000000000000        243539.03178924153     
   2645.0000000000000        243789.28250985077     
   2941.5000000000000        243841.98562060666     
   3256.0000000000000        243856.93842415616     
   3592.5000000000000        243857.43720316063     
   3895.0000000000000        243857.64668197490     
   4285.0000000000000        243857.99351826042     
   4745.0000000000000        243858.03027571936     
   5160.0000000000000        243858.03289830717     
   5647.5000000000000        243858.03350739917     
   6157.5000000000000        243858.03357545738     
   6690.0000000000000        243858.03358123958     
   7320.0000000000000        243858.03358135282     
   7982.5000000000000        243858.03358137060     
   8582.5000000000000        243858.03358137127     
   9100.0000000000000        243858.03358137133     
   9500.0000000000000        243858.03358137133     
   10025.000000000000        243858.03358137133     
   10810.000000000000        243858.03358137133     
   11545.000000000000        243858.03358137133     
   12330.000000000000        243858.03358137133     
   13045.000000000000        243858.03358137133     
   13885.000000000000        243858.03358137133     
   14735.000000000000        243858.03358137133     
   20.000000000000000        91.910656165215784     
   70.000000000000000        1343.1897681172723     
   130.00000000000000        4729.7802362312468     
   190.00000000000000        10687.551355587057     
   250.00000000000000        19198.633637324499     
   305.00000000000000        28149.104339925911     
   355.00000000000000        38764.252724916689     
   410.00000000000000        53915.295738139699     
   467.50000000000000        69172.244419826457     
   520.00000000000000        84054.960165849858     
   581.00000000000000        103155.98709973536     
   642.00000000000000        107299.88086619925     
   693.50000000000000        110890.99799475640     
   760.00000000000000        130455.36625319275     
   837.50000000000000        152013.72747489728     
   907.50000000000000        168739.42088542157     
   970.00000000000000        182377.16104531399     
   1032.5000000000000        184146.35936730666     
   1086.5000000000000        191576.90156197312     
   1154.0000000000000        204794.13278948783     
   1237.5000000000000        211520.06151579352     
   1312.5000000000000        214752.45717641755     
   1400.0000000000000        217244.40086657723     
   1500.0000000000000        218162.45626921585     
   1600.0000000000000        218861.41306791545     
   1700.0000000000000        219236.63838864915     
   1800.0000000000000        219668.87341425760     
   1900.0000000000000        220236.59795819916     
   2000.0000000000000        220899.77690171055     
   2125.0000000000000        221676.40202740536     
   2298.5000000000000        221830.57539474044     
   2445.5000000000000        221968.79561351356     
   2645.0000000000000        222216.23133036500     
   2941.5000000000000        222263.10367020767     
   3256.0000000000000        222272.82074377476     
   3592.5000000000000        222272.97947531543     
   3895.0000000000000        222273.03427117408     
   4285.0000000000000        222273.35904575294     
   4745.0000000000000        222273.39515284146     
   5160.0000000000000        222273.39673152714     
   5647.5000000000000        222273.39722320641     
   6157.5000000000000        222273.39729134543     
   6690.0000000000000        222273.39729613284     
   7320.0000000000000        222273.39729616320     
   7982.5000000000000        222273.39729618074     
   8582.5000000000000        222273.39729618130     
   9100.0000000000000        222273.39729618136     
   9500.0000000000000        222273.39729618136     
   10025.000000000000        222273.39729618136     
   10810.000000000000        222273.39729618136     
   11545.000000000000        222273.39729618136     
   12330.000000000000        222273.39729618136     
   13045.000000000000        222273.39729618136     
   13885.000000000000        222273.39729618136     
   14735.000000000000        222273.39729618136     
   20.000000000000000        91.910082166062196     
   70.000000000000000        1342.0437371268245     
   130.00000000000000        4727.4283284081012     
   190.00000000000000        10680.527508579600     
   250.00000000000000        19187.697284972015     
   305.00000000000000        28135.563507053033     
   355.00000000000000        38750.362595248698     
   410.00000000000000        53902.580765273320     
   467.50000000000000        69161.841189764047     
   520.00000000000000        84047.984178962390     
   581.00000000000000        103151.54404844534     
   642.00000000000000        107298.92616381512     
   693.50000000000000        110893.71102331454     
   760.00000000000000        130467.21390120464     
   837.50000000000000        152046.37443000232     
   907.50000000000000        168790.54160763448     
   970.00000000000000        182444.75777821842     
   1032.5000000000000        184218.27173355845     
   1086.5000000000000        191658.85460612178     
   1154.0000000000000        204894.59545344667     
   1237.5000000000000        211628.84871247393     
   1312.5000000000000        214863.55161434511     
   1400.0000000000000        217356.32025161941     
   1500.0000000000000        218273.70927791440     
   1600.0000000000000        218972.35685965780     
   1700.0000000000000        219347.28363197524     
   1800.0000000000000        219779.65078832576     
   1900.0000000000000        220347.89953550498     
   2000.0000000000000        221012.24147254918     
   2125.0000000000000        221790.79456938925     
   2298.5000000000000        221945.31695010629     
   2445.5000000000000        222083.95827347020     
   2645.0000000000000        222332.27622473778     
   2941.5000000000000        222379.31188250036     
   3256.0000000000000        222389.05554660314     
   3592.5000000000000        222389.21445052727     
   3895.0000000000000        222389.26932077765     
   4285.0000000000000        222389.59590059909     
   4745.0000000000000        222389.63223986869     
   5160.0000000000000        222389.63382637769     
   5647.5000000000000        222389.63432154484     
   6157.5000000000000        222389.63439026548     
   6690.0000000000000        222389.63439509374     
   7320.0000000000000        222389.63439512425     
   7982.5000000000000        222389.63439514197     
   8582.5000000000000        222389.63439514252     
   9100.0000000000000        222389.63439514258     
   9500.0000000000000        222389.63439514258     
   10025.000000000000        222389.63439514258     
   10810.000000000000        222389.63439514258     
   11545.000000000000        222389.63439514258     
   12330.000000000000        222389.63439514258     
   13045.000000000000        222389.63439514258     
   13885.000000000000        222389.63439514258     
   14735.000000000000        222389.63439514258     
   20.000000000000000        91.912519872327081     
   70.000000000000000        1341.8750849211372     
   130.00000000000000        4726.9651121280167     
   190.00000000000000        10678.930613881381     
   250.00000000000000        19185.466700093253     
   305.00000000000000        28133.351638813383     
   355.00000000000000        38748.904696249279     
   410.00000000000000        53902.379069062379     
   467.50000000000000        69162.938430877912     
   520.00000000000000        84050.175747507572     
   581.00000000000000        103154.94289867891     
   642.00000000000000        107304.61047310628     
   693.50000000000000        110901.93570450798     
   760.00000000000000        130476.13267923654     
   837.50000000000000        152055.02763285997     
   907.50000000000000        168799.01559263718     
   970.00000000000000        182453.11215827361     
   1032.5000000000000        184228.13105212475     
   1086.5000000000000        191668.70116423976     
   1154.0000000000000        204904.40187263265     
   1237.5000000000000        211638.69374574893     
   1312.5000000000000        214873.80409013320     
   1400.0000000000000        217367.30350002751     
   1500.0000000000000        218284.82662070068     
   1600.0000000000000        218983.66788723954     
   1700.0000000000000        219358.67688294812     
   1800.0000000000000        219791.23643176319     
   1900.0000000000000        220359.63445663979     
   2000.0000000000000        221024.00666645571     
   2125.0000000000000        221802.57130165963     
   2298.5000000000000        221957.12262474358     
   2445.5000000000000        222095.77465143017     
   2645.0000000000000        222344.09319901900     
   2941.5000000000000        222391.13053913586     
   3256.0000000000000        222400.87513960581     
   3592.5000000000000        222401.03417147609     
   3895.0000000000000        222401.08909650063     
   4285.0000000000000        222401.41567826504     
   4745.0000000000000        222401.45201837338     
   5160.0000000000000        222401.45360499580     
   5647.5000000000000        222401.45410017087     
   6157.5000000000000        222401.45416889311     
   6690.0000000000000        222401.45417372126     
   7320.0000000000000        222401.45417375176     
   7982.5000000000000        222401.45417376948     
   8582.5000000000000        222401.45417377003     
   9100.0000000000000        222401.45417377009     
   9500.0000000000000        222401.45417377009     
   10025.000000000000        222401.45417377009     
   10810.000000000000        222401.45417377009     
   11545.000000000000        222401.45417377009     
   12330.000000000000        222401.45417377009     
   13045.000000000000        222401.45417377009     
   13885.000000000000        222401.45417377009     
   14735.000000000000        222401.45417377009     
   20.000000000000000        91.914266584080607     
   70.000000000000000        1341.8534831623929     
   130.00000000000000        4726.8397239734741     
   190.00000000000000        10678.599109090843     
   250.00000000000000        19185.202735569907     
   305.00000000000000        28133.464332809519     
   355.00000000000000        38749.753538901248     
   410.00000000000000        53903.860723838290     
   467.50000000000000        69164.709310273596     
   520.00000000000000        84051.770323720673     
   581.00000000000000        103156.76502797112     
   642.00000000000000        107307.99676393396     
   693.50000000000000        110907.07251199153     
   760.00000000000000        130479.43296803898     
   837.50000000000000        152052.67436045906     
   907.50000000000000        168791.66608771621     
   970.00000000000000        182441.37144874060     
   1032.5000000000000        184216.81881845498     
   1086.5000000000000        191654.73424741265     
   1154.0000000000000        204885.54037514952     
   1237.5000000000000        211617.79108707674     
   1312.5000000000000        214852.58290310568     
   1400.0000000000000        217346.46166119236     
   1500.0000000000000        218264.25763910127     
   1600.0000000000000        218963.31647799464     
   1700.0000000000000        219338.46449784719     
   1800.0000000000000        219771.14221057732     
   1900.0000000000000        220339.49885406226     
   2000.0000000000000        221003.57643337580     
   2125.0000000000000        221781.64143383427     
   2298.5000000000000        221936.12502883037     
   2445.5000000000000        222074.67635061793     
   2645.0000000000000        222322.76500112179     
   2941.5000000000000        222369.76061533828     
   3256.0000000000000        222379.49862733140     
   3592.5000000000000        222379.65770799684     
   3895.0000000000000        222379.71265419509     
   4285.0000000000000        222380.03876405925     
   4745.0000000000000        222380.07504401245     
   5160.0000000000000        222380.07662860054     
   5647.5000000000000        222380.07712286044     
   6157.5000000000000        222380.07719143172     
   6690.0000000000000        222380.07719624901     
   7320.0000000000000        222380.07719627948     
   7982.5000000000000        222380.07719629718     
   8582.5000000000000        222380.07719629773     
   9100.0000000000000        222380.07719629779     
   9500.0000000000000        222380.07719629779     
   10025.000000000000        222380.07719629779     
   10810.000000000000        222380.07719629779     
   11545.000000000000        222380.07719629779     
   12330.000000000000        222380.07719629779     
   13045.000000000000        222380.07719629779     
   13885.000000000000        222380.07719629779     
   14735.000000000000        222380.07719629779     
   20.000000000000000        91.912772388568129     
   70.000000000000000        1341.6926796509208     
   130.00000000000000        4726.1425887636478     
   190.00000000000000        10677.009104004686     
   250.00000000000000        19182.824745109825     
   305.00000000000000        28130.720482688434     
   355.00000000000000        38747.075009968758     
   410.00000000000000        53901.280453978688     
   467.50000000000000        69162.199470760417     
   520.00000000000000        84049.328611071629     
   581.00000000000000        103154.58932810028     
   642.00000000000000        107307.84215212642     
   693.50000000000000        110909.25565802405     
   760.00000000000000        130482.22950593357     
   837.50000000000000        152056.29148133119     
   907.50000000000000        168796.05067761926     
   970.00000000000000        182446.45356372916     
   1032.5000000000000        184223.11184954995     
   1086.5000000000000        191661.46047701986     
   1154.0000000000000        204893.04626979653     
   1237.5000000000000        211625.51826813442     
   1312.5000000000000        214860.55648801205     
   1400.0000000000000        217354.51562616113     
   1500.0000000000000        218272.28017370304     
   1600.0000000000000        218971.33878188144     
   1700.0000000000000        219346.47722967400     
   1800.0000000000000        219779.18358226802     
   1900.0000000000000        220347.56078910115     
   2000.0000000000000        221011.67597411919     
   2125.0000000000000        221789.82590554992     
   2298.5000000000000        221944.33655772204     
   2445.5000000000000        222082.91159323920     
   2645.0000000000000        222331.04115802835     
   2941.5000000000000        222378.04401492997     
   3256.0000000000000        222387.78275459833     
   3592.5000000000000        222387.94185373862     
   3895.0000000000000        222387.99680761361     
   4285.0000000000000        222388.32299899487     
   4745.0000000000000        222388.35928980555     
   5160.0000000000000        222388.36087466910     
   5647.5000000000000        222388.36136908049     
   6157.5000000000000        222388.36143767927     
   6690.0000000000000        222388.36144249834     
   7320.0000000000000        222388.36144252881     
   7982.5000000000000        222388.36144254651     
   8582.5000000000000        222388.36144254706     
   9100.0000000000000        222388.36144254712     
   9500.0000000000000        222388.36144254712     
   10025.000000000000        222388.36144254712     
   10810.000000000000        222388.36144254712     
   11545.000000000000        222388.36144254712     
   12330.000000000000        222388.36144254712     
   13045.000000000000        222388.36144254712     
   13885.000000000000        222388.36144254712     
   14735.000000000000        222388.36144254712     
   20.000000000000000        91.913874265399343     
   70.000000000000000        1341.6994151059714     
   130.00000000000000        4726.1567171584611     
   190.00000000000000        10676.915260320628     
   250.00000000000000        19182.747736015990     
   305.00000000000000        28130.762088420237     
   355.00000000000000        38747.425120190746     
   410.00000000000000        53901.873992716952     
   467.50000000000000        69162.955330753874     
   520.00000000000000        84050.206079337790     
   581.00000000000000        103155.75333861023     
   642.00000000000000        107311.11182887542     
   693.50000000000000        110914.97980714591     
   760.00000000000000        130488.56093503864     
   837.50000000000000        152063.41536989599     
   907.50000000000000        168803.92088623453     
   970.00000000000000        182455.00669847615     
   1032.5000000000000        184232.89013822394     
   1086.5000000000000        191671.65712997911     
   1154.0000000000000        204904.01254782072     
   1237.5000000000000        211636.99646507326     
   1312.5000000000000        214872.18294254344     
   1400.0000000000000        217366.34497390004     
   1500.0000000000000        218284.19785680136     
   1600.0000000000000        218983.32539912884     
   1700.0000000000000        219358.50793488271     
   1800.0000000000000        219791.25364241831     
   1900.0000000000000        220359.65684649599     
   2000.0000000000000        221023.81167009909     
   2125.0000000000000        221802.04404791081     
   2298.5000000000000        221956.58066180345     
   2445.5000000000000        222095.17849058603     
   2645.0000000000000        222343.34734239968     
   2941.5000000000000        222390.35730234950     
   3256.0000000000000        222400.09695082268     
   3592.5000000000000        222400.25607071209     
   3895.0000000000000        222400.31103295780     
   4285.0000000000000        222400.63730306944     
   4745.0000000000000        222400.67360427135     
   5160.0000000000000        222400.67518941851     
   5647.5000000000000        222400.67568397682     
   6157.5000000000000        222400.67575260185     
   6690.0000000000000        222400.67575742264     
   7320.0000000000000        222400.67575745311     
   7982.5000000000000        222400.67575747080     
   8582.5000000000000        222400.67575747136     
   9100.0000000000000        222400.67575747141     
   9500.0000000000000        222400.67575747141     
   10025.000000000000        222400.67575747141     
   10810.000000000000        222400.67575747141     
   11545.000000000000        222400.67575747141     
   12330.000000000000        222400.67575747141     
   13045.000000000000        222400.67575747141     
   13885.000000000000        222400.67575747141     
   14735.000000000000        222400.67575747141     
   20.000000000000000        91.913000217119475     
   70.000000000000000        1341.6083375856822     
   130.00000000000000        4725.7681602207786     
   190.00000000000000        10675.795870627178     
   250.00000000000000        19180.900056073038     
   305.00000000000000        28128.427283074871     
   355.00000000000000        38744.938311030885     
   410.00000000000000        53899.458137864793     
   467.50000000000000        69160.820587685244     
   520.00000000000000        84048.667726476328     
   581.00000000000000        103154.83994343966     
   642.00000000000000        107313.28419276452     
   693.50000000000000        110920.75456296591     
   760.00000000000000        130497.12176351459     
   837.50000000000000        152078.03981879348     
   907.50000000000000        168823.96466475457     
   970.00000000000000        182479.87450818846     
   1032.5000000000000        184259.87840963571     
   1086.5000000000000        191701.58236469375     
   1154.0000000000000        204939.32410756309     
   1237.5000000000000        211674.47046740912     
   1312.5000000000000        214910.45471513228     
   1400.0000000000000        217404.66363101575     
   1500.0000000000000        218322.35938573923     
   1600.0000000000000        219021.40575520977     
   1700.0000000000000        219396.51724619450     
   1800.0000000000000        219829.26731935388     
   1900.0000000000000        220397.78671646051     
   2000.0000000000000        221062.26355360457     
   2125.0000000000000        221841.05987860399     
   2298.5000000000000        221995.70647568905     
   2445.5000000000000        222134.43099831429     
   2645.0000000000000        222382.86020042418     
   2941.5000000000000        222429.91775371553     
   3256.0000000000000        222439.66455716998     
   3592.5000000000000        222439.82370253885     
   3895.0000000000000        222439.87867460851     
   4285.0000000000000        222440.20547611182     
   4745.0000000000000        222440.24184591544     
   5160.0000000000000        222440.24343328286     
   5647.5000000000000        222440.24392886396     
   6157.5000000000000        222440.24399766134     
   6690.0000000000000        222440.24400249415     
   7320.0000000000000        222440.24400252468     
   7982.5000000000000        222440.24400254243     
   8582.5000000000000        222440.24400254298     
   9100.0000000000000        222440.24400254304     
   9500.0000000000000        222440.24400254304     
   10025.000000000000        222440.24400254304     
   10810.000000000000        222440.24400254304     
   11545.000000000000        222440.24400254304     
   12330.000000000000        222440.24400254304     
   13045.000000000000        222440.24400254304     
   13885.000000000000        222440.24400254304     
   14735.000000000000        222440.24400254304     
   20.000000000000000        91.912408795683035     
   70.000000000000000        1341.5214497585282     
   130.00000000000000        4725.3971914814938     
   190.00000000000000        10674.805007821773     
   250.00000000000000        19179.290663132797     
   305.00000000000000        28126.442356378007     
   355.00000000000000        38742.913701564641     
   410.00000000000000        53897.594290943380     
   467.50000000000000        69159.251536080643     
   520.00000000000000        84047.591565428898     
   581.00000000000000        103154.36293259940     
   642.00000000000000        107316.09694674163     
   693.50000000000000        110927.38575289433     
   760.00000000000000        130505.78016831592     
   837.50000000000000        152090.69639791487     
   907.50000000000000        168840.19989434376     
   970.00000000000000        182499.30706890341     
   1032.5000000000000        184281.31042575149     
   1086.5000000000000        191724.96974640538     
   1154.0000000000000        204966.30420814658     
   1237.5000000000000        211703.03571240095     
   1312.5000000000000        214939.60039944272     
   1400.0000000000000        217433.95939421473     
   1500.0000000000000        218351.54914484770     
   1600.0000000000000        219050.55294878609     
   1700.0000000000000        219425.61634884070     
   1800.0000000000000        219858.38776086664     
   1900.0000000000000        220427.00307730169     
   2000.0000000000000        221091.69707805983     
   2125.0000000000000        221870.87197231301     
   2298.5000000000000        222025.59908336689     
   2445.5000000000000        222164.41111963542     
   2645.0000000000000        222413.01463795229     
   2941.5000000000000        222460.10428809759     
   3256.0000000000000        222469.85600212202     
   3592.5000000000000        222470.01517929632     
   3895.0000000000000        222470.07016400134     
   4285.0000000000000        222470.39732140378     
   4745.0000000000000        222470.43373725732     
   5160.0000000000000        222470.43532611913     
   5647.5000000000000        222470.43582238525     
   6157.5000000000000        222470.43589129832     
   6690.0000000000000        222470.43589613916     
   7320.0000000000000        222470.43589616971     
   7982.5000000000000        222470.43589618750     
   8582.5000000000000        222470.43589618805     
   9100.0000000000000        222470.43589618811     
   9500.0000000000000        222470.43589618811     
   10025.000000000000        222470.43589618811     
   10810.000000000000        222470.43589618811     
   11545.000000000000        222470.43589618811     
   12330.000000000000        222470.43589618811     
   13045.000000000000        222470.43589618811     
   13885.000000000000        222470.43589618811     
   14735.000000000000        222470.43589618811     
   20.000000000000000        91.911808764585217     
   70.000000000000000        1341.4328018237095     
   130.00000000000000        4725.0278285398317     
   190.00000000000000        10673.884208446701     
   250.00000000000000        19177.820855617792     
   305.00000000000000        28124.656879359616     
   355.00000000000000        38741.128136821899     
   410.00000000000000        53895.947282806119     
   467.50000000000000        69157.811757258998     
   520.00000000000000        84046.490513484998     
   581.00000000000000        103153.77955826021     
   642.00000000000000        107318.95111174724     
   693.50000000000000        110934.20960439800     
   760.00000000000000        130514.19488557162     
   837.50000000000000        152102.02408078371     
   907.50000000000000        168854.15621784504     
   970.00000000000000        182515.61152524906     
   1032.5000000000000        184299.55573118068     
   1086.5000000000000        191744.64990440506     
   1154.0000000000000        204988.62692548611     
   1237.5000000000000        211726.55083559334     
   1312.5000000000000        214963.59096370442     
   1400.0000000000000        217458.09527519406     
   1500.0000000000000        218375.60754038137     
   1600.0000000000000        219074.58613185576     
   1700.0000000000000        219449.61425640876     
   1800.0000000000000        219882.40798557276     
   1900.0000000000000        220451.09584409860     
   2000.0000000000000        221115.94650595880     
   2125.0000000000000        221895.40106066503     
   2298.5000000000000        222050.19232351374     
   2445.5000000000000        222189.07104265757     
   2645.0000000000000        222437.80382117789     
   2941.5000000000000        222484.91723580021     
   3256.0000000000000        222494.67248802265     
   3592.5000000000000        222494.83169297050     
   3895.0000000000000        222494.88668868609     
   4285.0000000000000        222495.21410950201     
   4745.0000000000000        222495.25055954786     
   5160.0000000000000        222495.25214949640     
   5647.5000000000000        222495.25264626791     
   6157.5000000000000        222495.25271526698     
   6690.0000000000000        222495.25272011373     
   7320.0000000000000        222495.25272014429     
   7982.5000000000000        222495.25272016210     
   8582.5000000000000        222495.25272016268     
   9100.0000000000000        222495.25272016274     
   9500.0000000000000        222495.25272016274     
   10025.000000000000        222495.25272016274     
   10810.000000000000        222495.25272016274     
   11545.000000000000        222495.25272016274     
   12330.000000000000        222495.25272016274     
   13045.000000000000        222495.25272016274     
   13885.000000000000        222495.25272016274     
   14735.000000000000        222495.25272016274     
   20.000000000000000        91.909985756605721     
   70.000000000000000        1341.2720152135753     
   130.00000000000000        4724.3776639562511     
   190.00000000000000        10672.215085211827     
   250.00000000000000        19175.058497858106     
   305.00000000000000        28121.120415432284     
   355.00000000000000        38737.263731737279     
   410.00000000000000        53892.182978513687     
   467.50000000000000        69154.511536784164     
   520.00000000000000        84044.191451904306     
   581.00000000000000        103152.45958281665     
   642.00000000000000        107322.61174005627     
   693.50000000000000        110943.65772826047     
   760.00000000000000        130528.24076095509     
   837.50000000000000        152126.21140126089     
   907.50000000000000        168887.38378221827     
   970.00000000000000        182556.89199035268     
   1032.5000000000000        184344.09215116201     
   1086.5000000000000        191794.08624590642     
   1154.0000000000000        205047.07875757694     
   1237.5000000000000        211789.01906368622     
   1312.5000000000000        215027.22046075208     
   1400.0000000000000        217521.90076269835     
   1500.0000000000000        218439.13553972309     
   1600.0000000000000        219137.96557671766     
   1700.0000000000000        219512.86619895129     
   1800.0000000000000        219945.66035879953     
   1900.0000000000000        220514.54448984991     
   2000.0000000000000        221179.93634599313     
   2125.0000000000000        221960.33224709408     
   2298.5000000000000        222115.30449189644     
   2445.5000000000000        222254.39351034519     
   2645.0000000000000        222503.56090285341     
   2941.5000000000000        222550.75394550164     
   3256.0000000000000        222560.52142610730     
   3592.5000000000000        222560.68067151462     
   3895.0000000000000        222560.73568280396     
   4285.0000000000000        222561.06399267516     
   4745.0000000000000        222561.10055739022     
   5160.0000000000000        222561.10215107386     
   5647.5000000000000        222561.10264955935     
   6157.5000000000000        222561.10271884684     
   6690.0000000000000        222561.10272371376     
   7320.0000000000000        222561.10272374441     
   7982.5000000000000        222561.10272376233     
   8582.5000000000000        222561.10272376292     
   9100.0000000000000        222561.10272376298     
   9500.0000000000000        222561.10272376298     
   10025.000000000000        222561.10272376298     
   10810.000000000000        222561.10272376298     
   11545.000000000000        222561.10272376298     
   12330.000000000000        222561.10272376298     
   13045.000000000000        222561.10272376298     
   13885.000000000000        222561.10272376298     
   14735.000000000000        222561.10272376298     
   20.000000000000000        91.908966405181488     
   70.000000000000000        1341.1337703643467     
   130.00000000000000        4723.8300828280417     
   190.00000000000000        10670.842669300258     
   250.00000000000000        19172.823142030717     
   305.00000000000000        28118.327516752939     
   355.00000000000000        38734.367379981959     
   410.00000000000000        53889.562486026902     
   467.50000000000000        69152.386351516572     
   520.00000000000000        84042.874428424155     
   581.00000000000000        103152.08066256459     
   642.00000000000000        107327.48593171129     
   693.50000000000000        110954.58148502097     
   760.00000000000000        130542.45949813403     
   837.50000000000000        152147.05063494318     
   907.50000000000000        168914.13958491982     
   970.00000000000000        182588.93598689121     
   1032.5000000000000        184379.18920494526     
   1086.5000000000000        191832.41581464317     
   1154.0000000000000        205091.34996242795     
   1237.5000000000000        211835.89489651873     
   1312.5000000000000        215075.03191035669     
   1400.0000000000000        217569.94363407991     
   1500.0000000000000        218487.00044587613     
   1600.0000000000000        219185.75633061226     
   1700.0000000000000        219560.57546314909     
   1800.0000000000000        219993.40150284945     
   1900.0000000000000        220562.44536708429     
   2000.0000000000000        221228.19885941295     
   2125.0000000000000        222009.22109340489     
   2298.5000000000000        222164.32423231029     
   2445.5000000000000        222303.55694607669     
   2645.0000000000000        222553.01266031660     
   2941.5000000000000        222600.25883402696     
   3256.0000000000000        222610.03451550874     
   3592.5000000000000        222610.19381225223     
   3895.0000000000000        222610.24884400150     
   4285.0000000000000        222610.57774402443     
   4745.0000000000000        222610.61438510066     
   5160.0000000000000        222610.61598127647     
   5647.5000000000000        222610.61648090102     
   6157.5000000000000        222610.61655038066     
   6690.0000000000000        222610.61655526093     
   7320.0000000000000        222610.61655529161     
   7982.5000000000000        222610.61655530959     
   8582.5000000000000        222610.61655531017     
   9100.0000000000000        222610.61655531023     
   9500.0000000000000        222610.61655531023     
   10025.000000000000        222610.61655531023     
   10810.000000000000        222610.61655531023     
   11545.000000000000        222610.61655531023     
   12330.000000000000        222610.61655531023     
   13045.000000000000        222610.61655531023     
   13885.000000000000        222610.61655531023     
   14735.000000000000        222610.61655531023     
   20.000000000000000        91.907728338493129     
   70.000000000000000        1340.9956716776312     
   130.00000000000000        4723.2840189653607     
   190.00000000000000        10669.514947046049     
   250.00000000000000        19170.681936660036     
   305.00000000000000        28115.665047335890     
   355.00000000000000        38731.595020439046     
   410.00000000000000        53886.916457654050     
   467.50000000000000        69149.981849806194     
   520.00000000000000        84040.952026362356     
   581.00000000000000        103150.85202000644     
   642.00000000000000        107331.67100941594     
   693.50000000000000        110964.97246202051     
   760.00000000000000        130555.78862070203     
   837.50000000000000        152166.37703713943     
   907.50000000000000        168938.86010986421     
   970.00000000000000        182618.47014375299     
   1032.5000000000000        184411.75621186514     
   1086.5000000000000        191867.91626591122     
   1154.0000000000000        205132.22451500292     
   1237.5000000000000        211878.94683275590     
   1312.5000000000000        215118.95641781809     
   1400.0000000000000        217613.98259456077     
   1500.0000000000000        218530.88232507545     
   1600.0000000000000        219229.57164385013     
   1700.0000000000000        219604.31955866452     
   1800.0000000000000        220037.16501743489     
   1900.0000000000000        220606.32252635859     
   2000.0000000000000        221272.38613486604     
   2125.0000000000000        222053.97345633438     
   2298.5000000000000        222209.19604682291     
   2445.5000000000000        222348.56010526387     
   2645.0000000000000        222598.27936252946     
   2941.5000000000000        222645.57338526956     
   3256.0000000000000        222655.35590807354     
   3592.5000000000000        222655.51523891534     
   3895.0000000000000        222655.57028428462     
   4285.0000000000000        222655.89972171246     
   4745.0000000000000        222655.93643254857     
   5160.0000000000000        222655.93803089784     
   5647.5000000000000        222655.93853155387     
   6157.5000000000000        222655.93860120961     
   6690.0000000000000        222655.93860610202     
   7320.0000000000000        222655.93860613272     
   7982.5000000000000        222655.93860615077     
   8582.5000000000000        222655.93860615135     
   9100.0000000000000        222655.93860615141     
   9500.0000000000000        222655.93860615141     
   10025.000000000000        222655.93860615141     
   10810.000000000000        222655.93860615141     
   11545.000000000000        222655.93860615141     
   12330.000000000000        222655.93860615141     
   13045.000000000000        222655.93860615141     
   13885.000000000000        222655.93860615141     
   14735.000000000000        222655.93860615141     
   20.000000000000000        91.903110108497970     
   70.000000000000000        1340.6656192338737     
   130.00000000000000        4721.9492149454136     
   190.00000000000000        10666.360520010710     
   250.00000000000000        19165.507130660586     
   305.00000000000000        28109.035986823044     
   355.00000000000000        38724.210748422302     
   410.00000000000000        53879.467668593410     
   467.50000000000000        69142.985718674463     
   520.00000000000000        84035.252188963088     
   581.00000000000000        103146.42100079193     
   642.00000000000000        107335.05262121884     
   693.50000000000000        110977.36395350982     
   760.00000000000000        130575.82487119551     
   837.50000000000000        152203.50502815514     
   907.50000000000000        168991.15834066659     
   970.00000000000000        182684.22921025395     
   1032.5000000000000        184482.53656079393     
   1086.5000000000000        191946.86622024982     
   1154.0000000000000        205226.19277219765     
   1237.5000000000000        211979.06837784027     
   1312.5000000000000        215221.09314115677     
   1400.0000000000000        217716.12353366744     
   1500.0000000000000        218632.49830909789     
   1600.0000000000000        219330.89113896075     
   1700.0000000000000        219705.39619227516     
   1800.0000000000000        220138.21363075080     
   1900.0000000000000        220707.65612377360     
   2000.0000000000000        221374.63207815337     
   2125.0000000000000        222157.79292586391     
   2298.5000000000000        222313.30983211927     
   2445.5000000000000        222453.02077939120     
   2645.0000000000000        222703.46148583584     
   2941.5000000000000        222750.88788640409     
   3256.0000000000000        222760.69070341130     
   3592.5000000000000        222760.85007644870     
   3895.0000000000000        222760.90513896724     
   4285.0000000000000        222761.23606157966     
   4745.0000000000000        222761.27296343909     
   5160.0000000000000        222761.27456815928     
   5647.5000000000000        222761.27507168570     
   6157.5000000000000        222761.27514182212     
   6690.0000000000000        222761.27514674849     
   7320.0000000000000        222761.27514677931     
   7982.5000000000000        222761.27514679750     
   8582.5000000000000        222761.27514679809     
   9100.0000000000000        222761.27514679814     
   9500.0000000000000        222761.27514679814     
   10025.000000000000        222761.27514679814     
   10810.000000000000        222761.27514679814     
   11545.000000000000        222761.27514679814     
   12330.000000000000        222761.27514679814     
   13045.000000000000        222761.27514679814     
   13885.000000000000        222761.27514679814     
   14735.000000000000        222761.27514679814     
   20.000000000000000        91.901892114841701     
   70.000000000000000        1340.4912067812575     
   130.00000000000000        4721.2832758800678     
   190.00000000000000        10664.651234869718     
   250.00000000000000        19162.665458315652     
   305.00000000000000        28105.400894175316     
   355.00000000000000        38720.388326736822     
   410.00000000000000        53876.104788662262     
   467.50000000000000        69140.404470445515     
   520.00000000000000        84033.929222100123     
   581.00000000000000        103146.50004879279     
   642.00000000000000        107343.32583815564     
   693.50000000000000        110994.99835039949     
   760.00000000000000        130598.72246697835     
   837.50000000000000        152237.18755730113     
   907.50000000000000        169034.49681947537     
   970.00000000000000        182736.18382341883     
   1032.5000000000000        184539.16185704412     
   1086.5000000000000        192008.75442777626     
   1154.0000000000000        205297.73821973457     
   1237.5000000000000        212054.50443760908     
   1312.5000000000000        215298.11392038406     
   1400.0000000000000        217793.38137773765     
   1500.0000000000000        218709.47990102624     
   1600.0000000000000        219407.75326309842     
   1700.0000000000000        219782.13217010695     
   1800.0000000000000        220214.99247673264     
   1900.0000000000000        220784.68851157950     
   2000.0000000000000        221452.25349885356     
   2125.0000000000000        222236.43466630857     
   2298.5000000000000        222392.16143016840     
   2445.5000000000000        222532.10509365541     
   2645.0000000000000        222783.01610047987     
   2941.5000000000000        222830.52906575127     
   3256.0000000000000        222840.34514706224     
   3592.5000000000000        222840.50459685290     
   3895.0000000000000        222840.55968984112     
   4285.0000000000000        222840.89157839786     
   4745.0000000000000        222840.92860539403     
   5160.0000000000000        222840.93021419819     
   5647.5000000000000        222840.93071959601     
   6157.5000000000000        222840.93079004833     
   6690.0000000000000        222840.93079499670     
   7320.0000000000000        222840.93079502761     
   7982.5000000000000        222840.93079504592     
   8582.5000000000000        222840.93079504650     
   9100.0000000000000        222840.93079504656     
   9500.0000000000000        222840.93079504656     
   10025.000000000000        222840.93079504656     
   10810.000000000000        222840.93079504656     
   11545.000000000000        222840.93079504656     
   12330.000000000000        222840.93079504656     
   13045.000000000000        222840.93079504656     
   13885.000000000000        222840.93079504656     
   14735.000000000000        222840.93079504656     
   20.000000000000000        91.900616018624291     
   70.000000000000000        1340.3155001523990     
   130.00000000000000        4720.5975138680915     
   190.00000000000000        10662.938286741808     
   250.00000000000000        19159.848977104921     
   305.00000000000000        28101.854762781652     
   355.00000000000000        38716.720490972359     
   410.00000000000000        53872.861604599835     
   467.50000000000000        69137.755661636911     
   520.00000000000000        84032.160356416192     
   581.00000000000000        103145.90652866320     
   642.00000000000000        107351.19965595365     
   693.50000000000000        111012.48522397032     
   760.00000000000000        130620.20659290761     
   837.50000000000000        152266.26520452063     
   907.50000000000000        169070.39727448687     
   970.00000000000000        182778.19015638620     
   1032.5000000000000        184585.67024633320     
   1086.5000000000000        192058.99803425721     
   1154.0000000000000        205354.84731059134     
   1237.5000000000000        212114.66183214702     
   1312.5000000000000        215359.44697437112     
   1400.0000000000000        217855.04555624182     
   1500.0000000000000        218770.91602032396     
   1600.0000000000000        219469.10373210974     
   1700.0000000000000        219843.37762145401     
   1800.0000000000000        220276.28492287657     
   1900.0000000000000        220846.17363113016     
   2000.0000000000000        221514.15223859678     
   2125.0000000000000        222299.06163123838     
   2298.5000000000000        222454.95006639071     
   2445.5000000000000        222595.06477711769     
   2645.0000000000000        222846.31242149562     
   2941.5000000000000        222893.88735488834     
   3256.0000000000000        222903.71285193588     
   3592.5000000000000        222903.87237087425     
   3895.0000000000000        222903.92749156276     
   4285.0000000000000        222904.26007089292     
   4745.0000000000000        222904.29718764758     
   5160.0000000000000        222904.29879933907     
   5647.5000000000000        222904.29930607291     
   6157.5000000000000        222904.29937675214     
   6690.0000000000000        222904.29938171621     
   7320.0000000000000        222904.29938174714     
   7982.5000000000000        222904.29938176554     
   8582.5000000000000        222904.29938176612     
   9100.0000000000000        222904.29938176618     
   9500.0000000000000        222904.29938176618     
   10025.000000000000        222904.29938176618     
   10810.000000000000        222904.29938176618     
   11545.000000000000        222904.29938176618     
   12330.000000000000        222904.29938176618     
   13045.000000000000        222904.29938176618     
   13885.000000000000        222904.29938176618     
   14735.000000000000        222904.29938176618     
   20.000000000000000        91.899362986657877     
   70.000000000000000        1340.1526881157722     
   130.00000000000000        4719.9668416314835     
   190.00000000000000        10661.368173630350     
   250.00000000000000        19157.266721637494     
   305.00000000000000        28098.605831909765     
   355.00000000000000        38713.366665064947     
   410.00000000000000        53869.838179421786     
   467.50000000000000        69135.120864472032     
   520.00000000000000        84030.073116826927     
   581.00000000000000        103144.78144455623     
   642.00000000000000        107358.72507580568     
   693.50000000000000        111029.79676645537     
   760.00000000000000        130640.71746786886     
   837.50000000000000        152292.47347589591     
   907.50000000000000        169101.74237645423     
   970.00000000000000        182814.14001133174     
   1032.5000000000000        184626.03159049386     
   1086.5000000000000        192102.18335081713     
   1154.0000000000000        205403.20441356837     
   1237.5000000000000        212165.17290725349     
   1312.5000000000000        215410.98308643702     
   1400.0000000000000        217906.79372686284     
   1500.0000000000000        218822.46451859886     
   1600.0000000000000        219520.58008594238     
   1700.0000000000000        219894.76081843424     
   1800.0000000000000        220327.70592448639     
   1900.0000000000000        220897.73884465930     
   2000.0000000000000        221566.02233388394     
   2125.0000000000000        222351.48443603382     
   2298.5000000000000        222507.50461089629     
   2445.5000000000000        222647.75309439353     
   2645.0000000000000        222899.25700377900     
   2941.5000000000000        222946.87884754431     
   3256.0000000000000        222956.71119792442     
   3592.5000000000000        222956.87077260501     
   3895.0000000000000        222956.92591549177     
   4285.0000000000000        222957.25901933902     
   4745.0000000000000        222957.29620465590     
   5160.0000000000000        222957.29781850189     
   5647.5000000000000        222957.29832625005     
   6157.5000000000000        222957.29839710295     
   6690.0000000000000        222957.29840207892     
   7320.0000000000000        222957.29840210991     
   7982.5000000000000        222957.29840212836     
   8582.5000000000000        222957.29840212894     
   9100.0000000000000        222957.29840212900     
   9500.0000000000000        222957.29840212900     
   10025.000000000000        222957.29840212900     
   10810.000000000000        222957.29840212900     
   11545.000000000000        222957.29840212900     
   12330.000000000000        222957.29840212900     
   13045.000000000000        222957.29840212900     
   13885.000000000000        222957.29840212900     
   14735.000000000000        222957.29840212900     
   20.000000000000000        91.897722194001801     
   70.000000000000000        1339.9797912896456     
   130.00000000000000        4719.2966892542254     
   190.00000000000000        10659.702094074142     
   250.00000000000000        19154.502787223686     
   305.00000000000000        28095.085647294931     
   355.00000000000000        38709.650695455450     
   410.00000000000000        53866.378192523545     
   467.50000000000000        69131.967093851345     
   520.00000000000000        84027.398569669385     
   581.00000000000000        103143.02718099489     
   642.00000000000000        107366.14481912408     
   693.50000000000000        111047.58059418233     
   760.00000000000000        130661.96719127664     
   837.50000000000000        152320.07079379269     
   907.50000000000000        169135.07054917759     
   970.00000000000000        182852.59784625951     
   1032.5000000000000        184669.17741983553     
   1086.5000000000000        192148.46141022336     
   1154.0000000000000        205455.23736921282     
   1237.5000000000000        212219.67947454908     
   1312.5000000000000        215466.56712900245     
   1400.0000000000000        217962.57572479756     
   1500.0000000000000        218878.01309057913     
   1600.0000000000000        219576.03050826400     
   1700.0000000000000        219950.10131404400     
   1800.0000000000000        220383.06886976527     
   1900.0000000000000        220953.24390036907     
   2000.0000000000000        221621.86131829151     
   2125.0000000000000        222407.93552963267     
   2298.5000000000000        222564.09851395941     
   2445.5000000000000        222704.49426120278     
   2645.0000000000000        222956.28334689388     
   2941.5000000000000        223003.95729567701     
   3256.0000000000000        223013.79715686440     
   3592.5000000000000        223013.95677935393     
   3895.0000000000000        223014.01194095667     
   4285.0000000000000        223014.34562908940     
   4745.0000000000000        223014.38289055944     
   5160.0000000000000        223014.38450678065     
   5647.5000000000000        223014.38501565563     
   6157.5000000000000        223014.38508670157     
   6690.0000000000000        223014.38509169081     
   7320.0000000000000        223014.38509172184     
   7982.5000000000000        223014.38509174035     
   8582.5000000000000        223014.38509174093     
   9100.0000000000000        223014.38509174099     
   9500.0000000000000        223014.38509174099     
   10025.000000000000        223014.38509174099     
   10810.000000000000        223014.38509174099     
   11545.000000000000        223014.38509174099     
   12330.000000000000        223014.38509174099     
   13045.000000000000        223014.38509174099     
   13885.000000000000        223014.38509174099     
   14735.000000000000        223014.38509174099     
   20.000000000000000        91.896404087129412     
   70.000000000000000        1339.8286206420746     
   130.00000000000000        4718.7224463960411     
   190.00000000000000        10658.246518591548     
   250.00000000000000        19152.078485139758     
   305.00000000000000        28092.001091360820     
   355.00000000000000        38706.428437863236     
   410.00000000000000        53863.414270109410     
   467.50000000000000        69129.225166486081     
   520.00000000000000        84024.953926642396     
   581.00000000000000        103141.38254014878     
   642.00000000000000        107373.80732497628     
   693.50000000000000        111065.73203087578     
   760.00000000000000        130682.95076775546     
   837.50000000000000        152345.83199419797     
   907.50000000000000        169165.17576982969     
   970.00000000000000        182886.59817027999     
   1032.5000000000000        184707.79116464264     
   1086.5000000000000        192189.46041347180     
   1154.0000000000000        205500.59138184978     
   1237.5000000000000        212266.62843683484     
   1312.5000000000000        215514.55683176665     
   1400.0000000000000        218010.66736594279     
   1500.0000000000000        218925.90815381860     
   1600.0000000000000        219623.85050038810     
   1700.0000000000000        219997.82800371040     
   1800.0000000000000        220430.81953230820     
   1900.0000000000000        221001.10624567553     
   2000.0000000000000        221669.97137393107     
   2125.0000000000000        222456.51395679431     
   2298.5000000000000        222612.79600164489     
   2445.5000000000000        222753.30845113317     
   2645.0000000000000        223005.31651799535     
   2941.5000000000000        223053.03037802392     
   3256.0000000000000        223062.87569363959     
   3592.5000000000000        223063.03535926910     
   3895.0000000000000        223063.09053773308     
   4285.0000000000000        223063.42467378947     
   4745.0000000000000        223063.46199389087     
   5160.0000000000000        223063.46361189769     
   5647.5000000000000        223063.46412163452     
   6157.5000000000000        223063.46419282936     
   6690.0000000000000        223063.46419782873     
   7320.0000000000000        223063.46419785978     
   7982.5000000000000        223063.46419787835     
   8582.5000000000000        223063.46419787893     
   9100.0000000000000        223063.46419787899     
   9500.0000000000000        223063.46419787899     
   10025.000000000000        223063.46419787899     
   10810.000000000000        223063.46419787899     
   11545.000000000000        223063.46419787899     
   12330.000000000000        223063.46419787899     
   13045.000000000000        223063.46419787899     
   13885.000000000000        223063.46419787899     
   14735.000000000000        223063.46419787899     
   20.000000000000000        91.894878198721102     
   70.000000000000000        1339.6806673807735     
   130.00000000000000        4718.1635685242654     
   190.00000000000000        10656.830291727281     
   250.00000000000000        19149.711811135749     
   305.00000000000000        28088.969079446131     
   355.00000000000000        38703.215264884217     
   410.00000000000000        53860.363096706889     
   467.50000000000000        69126.253865578343     
   520.00000000000000        84022.079271730778     
   581.00000000000000        103139.15509033899     
   642.00000000000000        107380.96656923080     
   693.50000000000000        111083.45520463494     
   760.00000000000000        130703.34315405093     
   837.50000000000000        152370.74745489814     
   907.50000000000000        169194.21933279588     
   970.00000000000000        182919.33903707066     
   1032.5000000000000        184745.15156348917     
   1086.5000000000000        192229.08076296159     
   1154.0000000000000        205544.36349496237     
   1237.5000000000000        212312.30081577392     
   1312.5000000000000        215561.06048900262     
   1400.0000000000000        218057.33785780476     
   1500.0000000000000        218972.38308169358     
   1600.0000000000000        219670.24436052958     
   1700.0000000000000        220044.12799834282     
   1800.0000000000000        220477.12953136489     
   1900.0000000000000        221047.50152373913     
   2000.0000000000000        221716.59049950185     
   2125.0000000000000        222503.57551564122     
   2298.5000000000000        222659.97144901726     
   2445.5000000000000        222800.59543796224     
   2645.0000000000000        223052.81270522031     
   2941.5000000000000        223100.56431103210     
   3256.0000000000000        223110.41462082131     
   3592.5000000000000        223110.57431663465     
   3895.0000000000000        223110.62950665777     
   4285.0000000000000        223110.96406947356     
   4745.0000000000000        223111.00144546118     
   5160.0000000000000        223111.00306511106     
   5647.5000000000000        223111.00357566428     
   6157.5000000000000        223111.00364700134     
   6690.0000000000000        223111.00365201032     
   7320.0000000000000        223111.00365204140     
   7982.5000000000000        223111.00365206000     
   8582.5000000000000        223111.00365206058     
   9100.0000000000000        223111.00365206064     
   9500.0000000000000        223111.00365206064     
   10025.000000000000        223111.00365206064     
   10810.000000000000        223111.00365206064     
   11545.000000000000        223111.00365206064     
   12330.000000000000        223111.00365206064     
   13045.000000000000        223111.00365206064     
   13885.000000000000        223111.00365206064     
   14735.000000000000        223111.00365206064     
