   20.000000000000000        124.11876848759327     
   70.000000000000000        2072.9465139959657     
   130.00000000000000        7760.9733931819374     
   190.00000000000000        18256.315075461633     
   250.00000000000000        33812.192635300147     
   305.00000000000000        50517.025696582306     
   355.00000000000000        70391.747240894721     
   410.00000000000000        97996.232125959999     
   467.50000000000000        125953.69038912839     
   520.00000000000000        153075.46488922791     
   581.00000000000000        193535.61950499500     
   642.00000000000000        219152.85111130917     
   693.50000000000000        244495.32587201564     
   760.00000000000000        288227.49526724918     
   837.50000000000000        327003.25914679962     
   907.50000000000000        358045.59169797675     
   970.00000000000000        384353.13239713752     
   1032.5000000000000        410202.32694114564     
   1086.5000000000000        425768.95458923758     
   1154.0000000000000        455069.15590312605     
   1237.5000000000000        474872.78363835451     
   1312.5000000000000        490874.54202059237     
   1400.0000000000000        507090.16927429312     
   1500.0000000000000        518506.52683407022     
   1600.0000000000000        527636.99960695149     
   1700.0000000000000        534205.78893905133     
   1800.0000000000000        539549.96660192532     
   1900.0000000000000        543960.20024114847     
   2000.0000000000000        547442.93343255902     
   2125.0000000000000        551143.52152041509     
   2298.5000000000000        552914.56620449724     
   2445.5000000000000        553789.25476656319     
   2645.0000000000000        555192.48626559542     
   2941.5000000000000        555660.91298017697     
   3256.0000000000000        555830.08481200889     
   3592.5000000000000        555864.00150145858     
   3895.0000000000000        555873.30831153761     
   4285.0000000000000        555879.42673823342     
   4745.0000000000000        555880.28209665883     
   5160.0000000000000        555880.42361562932     
   5647.5000000000000        555880.45310546970     
   6157.5000000000000        555880.45677093358     
   6690.0000000000000        555880.45728391642     
   7320.0000000000000        555880.45731636346     
   7982.5000000000000        555880.45731942065     
   8582.5000000000000        555880.45731961343     
   9100.0000000000000        555880.45731963450     
   9500.0000000000000        555880.45731963695     
   10025.000000000000        555880.45731963764     
   10810.000000000000        555880.45731963764     
   11545.000000000000        555880.45731963764     
   12330.000000000000        555880.45731963764     
   13045.000000000000        555880.45731963764     
   13885.000000000000        555880.45731963764     
   14735.000000000000        555880.45731963764     
   20.000000000000000        96.496059323927838     
   70.000000000000000        1451.5285780720894     
   130.00000000000000        5175.0673669466314     
   190.00000000000000        11777.850341448313     
   250.00000000000000        21252.060320944962     
   305.00000000000000        31199.161419823879     
   355.00000000000000        42892.307594500460     
   410.00000000000000        59185.132969416612     
   467.50000000000000        75412.393454906094     
   520.00000000000000        91017.436958781167     
   581.00000000000000        113970.19045190957     
   642.00000000000000        129857.20007595216     
   693.50000000000000        145999.41187718397     
   760.00000000000000        171112.03349297418     
   837.50000000000000        193870.30128594575     
   907.50000000000000        211973.46182873930     
   970.00000000000000        227288.80348988934     
   1032.5000000000000        242356.74521028771     
   1086.5000000000000        251282.01888997742     
   1154.0000000000000        267313.44377495226     
   1237.5000000000000        276578.32849834807     
   1312.5000000000000        282404.59067326493     
   1400.0000000000000        285889.91308077739     
   1500.0000000000000        287370.57990127057     
   1600.0000000000000        288517.86933961336     
   1700.0000000000000        289157.39680926088     
   1800.0000000000000        289813.98477168771     
   1900.0000000000000        290588.21379438223     
   2000.0000000000000        291457.16245748452     
   2125.0000000000000        292790.36855258216     
   2298.5000000000000        293717.95249025436     
   2445.5000000000000        294136.08234563307     
   2645.0000000000000        294743.26195931988     
   2941.5000000000000        294862.57591857424     
   3256.0000000000000        294877.39275956398     
   3592.5000000000000        294878.01948814309     
   3895.0000000000000        294878.14206758939     
   4285.0000000000000        294879.63910659199     
   4745.0000000000000        294880.06443040300     
   5160.0000000000000        294880.06866624893     
   5647.5000000000000        294880.07390561921     
   6157.5000000000000        294880.07653556642     
   6690.0000000000000        294880.07662508695     
   7320.0000000000000        294880.07662516413     
   7982.5000000000000        294880.07662738365     
   8582.5000000000000        294880.07662741409     
   9100.0000000000000        294880.07662742119     
   9500.0000000000000        294880.07662742358     
   10025.000000000000        294880.07662742399     
   10810.000000000000        294880.07662742399     
   11545.000000000000        294880.07662742399     
   12330.000000000000        294880.07662742399     
   13045.000000000000        294880.07662742399     
   13885.000000000000        294880.07662742399     
   14735.000000000000        294880.07662742399     
   20.000000000000000        96.433730519896912     
   70.000000000000000        1449.2014846554682     
   130.00000000000000        5167.8884799989819     
   190.00000000000000        11758.503291560550     
   250.00000000000000        21216.981561265839     
   305.00000000000000        31148.027162493876     
   355.00000000000000        42824.147724483053     
   410.00000000000000        59099.644729991276     
   467.50000000000000        75313.261716418681     
   520.00000000000000        90909.867543403132     
   581.00000000000000        113855.40089619333     
   642.00000000000000        129739.06430048950     
   693.50000000000000        145876.23824475936     
   760.00000000000000        171007.93259479923     
   837.50000000000000        193791.06252772489     
   907.50000000000000        211917.43035941702     
   970.00000000000000        227254.57394000722     
   1032.5000000000000        242345.14153468993     
   1086.5000000000000        251283.70372817974     
   1154.0000000000000        267337.15223998844     
   1237.5000000000000        276608.86069464165     
   1312.5000000000000        282431.99499993998     
   1400.0000000000000        285903.75368440134     
   1500.0000000000000        287374.24301547837     
   1600.0000000000000        288513.95239609177     
   1700.0000000000000        289148.41492905264     
   1800.0000000000000        289801.16057040397     
   1900.0000000000000        290573.53064469574     
   2000.0000000000000        291442.70152837271     
   2125.0000000000000        292779.20313565299     
   2298.5000000000000        293708.29875934689     
   2445.5000000000000        294128.74893104570     
   2645.0000000000000        294739.54714131606     
   2941.5000000000000        294859.34376747225     
   3256.0000000000000        294874.16168454493     
   3592.5000000000000        294874.78303433274     
   3895.0000000000000        294874.90432527673     
   4285.0000000000000        294876.41335668741     
   4745.0000000000000        294876.84354238486     
   5160.0000000000000        294876.84778653621     
   5647.5000000000000        294876.85308529955     
   6157.5000000000000        294876.85575952200     
   6690.0000000000000        294876.85585033358     
   7320.0000000000000        294876.85585041053     
   7982.5000000000000        294876.85585268057     
   8582.5000000000000        294876.85585271160     
   9100.0000000000000        294876.85585271887     
   9500.0000000000000        294876.85585272132     
   10025.000000000000        294876.85585272178     
   10810.000000000000        294876.85585272178     
   11545.000000000000        294876.85585272178     
   12330.000000000000        294876.85585272178     
   13045.000000000000        294876.85585272178     
   13885.000000000000        294876.85585272178     
   14735.000000000000        294876.85585272178     
   20.000000000000000        96.407575355809215     
   70.000000000000000        1448.3682553408921     
   130.00000000000000        5164.7153820331478     
   190.00000000000000        11750.105899528889     
   250.00000000000000        21201.225484506205     
   305.00000000000000        31124.813221432778     
   355.00000000000000        42793.550796933618     
   410.00000000000000        59063.068625030566     
   467.50000000000000        75272.745331787431     
   520.00000000000000        90867.777414710406     
   581.00000000000000        113812.66318025785     
   642.00000000000000        129695.71154345230     
   693.50000000000000        145831.00026927379     
   760.00000000000000        170970.15267632532     
   837.50000000000000        193762.47257133431     
   907.50000000000000        211897.52541367168     
   970.00000000000000        227242.96455044937     
   1032.5000000000000        242342.34006382540     
   1086.5000000000000        251286.12116673769     
   1154.0000000000000        267348.26570940681     
   1237.5000000000000        276622.68478685099     
   1312.5000000000000        282444.75940792967     
   1400.0000000000000        285911.70684676932     
   1500.0000000000000        287377.54580930399     
   1600.0000000000000        288513.97575429361     
   1700.0000000000000        289146.09867516346     
   1800.0000000000000        289797.38247307821     
   1900.0000000000000        290569.16693445150     
   2000.0000000000000        291438.41887645912     
   2125.0000000000000        292776.28994208126     
   2298.5000000000000        293706.04317192442     
   2445.5000000000000        294127.49185502861     
   2645.0000000000000        294739.84822119668     
   2941.5000000000000        294859.85187253956     
   3256.0000000000000        294874.67034481303     
   3592.5000000000000        294875.28992177534     
   3895.0000000000000        294875.41078629380     
   4285.0000000000000        294876.92509970657     
   4745.0000000000000        294877.35725479212     
   5160.0000000000000        294877.36150199827     
   5647.5000000000000        294877.36682648130     
   6157.5000000000000        294877.36951756669     
   6690.0000000000000        294877.36960891879     
   7320.0000000000000        294877.36960899568     
   7982.5000000000000        294877.36961128470     
   8582.5000000000000        294877.36961131601     
   9100.0000000000000        294877.36961132335     
   9500.0000000000000        294877.36961132579     
   10025.000000000000        294877.36961132626     
   10810.000000000000        294877.36961132626     
   11545.000000000000        294877.36961132626     
   12330.000000000000        294877.36961132626     
   13045.000000000000        294877.36961132626     
   13885.000000000000        294877.36961132626     
   14735.000000000000        294877.36961132626     
   20.000000000000000        96.398024986568686     
   70.000000000000000        1447.9857479102798     
   130.00000000000000        5163.1590438278472     
   190.00000000000000        11746.013695583730     
   250.00000000000000        21193.581864950196     
   305.00000000000000        31113.804404750503     
   355.00000000000000        42779.732954649902     
   410.00000000000000        59048.056501934392     
   467.50000000000000        75257.523119801161     
   520.00000000000000        90853.361375736989     
   581.00000000000000        113799.94613005812     
   642.00000000000000        129683.84442246395     
   693.50000000000000        145819.33368333397     
   760.00000000000000        170962.45579089562     
   837.50000000000000        193758.68416700579     
   907.50000000000000        211897.21363379731     
   970.00000000000000        227245.87081944064     
   1032.5000000000000        242348.61768349563     
   1086.5000000000000        251294.41200662585     
   1154.0000000000000        267360.05295023700     
   1237.5000000000000        276635.98109489807     
   1312.5000000000000        282458.39209115400     
   1400.0000000000000        285924.23621779779     
   1500.0000000000000        287388.08611319534     
   1600.0000000000000        288523.26117464894     
   1700.0000000000000        289154.36731138121     
   1800.0000000000000        289805.24959394324     
   1900.0000000000000        290577.01791721309     
   2000.0000000000000        291446.42725450575     
   2125.0000000000000        292784.83814825775     
   2298.5000000000000        293714.83495195088     
   2445.5000000000000        294136.59115369822     
   2645.0000000000000        294749.43382539501     
   2941.5000000000000        294869.51283405907     
   3256.0000000000000        294884.33566031809     
   3592.5000000000000        294884.95493698982     
   3895.0000000000000        294885.07572867000     
   4285.0000000000000        294886.59166005719     
   4745.0000000000000        294887.02434802160     
   5160.0000000000000        294887.02859755885     
   5647.5000000000000        294887.03392937122     
   6157.5000000000000        294887.03662489704     
   6690.0000000000000        294887.03671639878     
   7320.0000000000000        294887.03671647573     
   7982.5000000000000        294887.03671876981     
   8582.5000000000000        294887.03671880119     
   9100.0000000000000        294887.03671880858     
   9500.0000000000000        294887.03671881102     
   10025.000000000000        294887.03671881149     
   10810.000000000000        294887.03671881149     
   11545.000000000000        294887.03671881149     
   12330.000000000000        294887.03671881149     
   13045.000000000000        294887.03671881149     
   13885.000000000000        294887.03671881149     
   14735.000000000000        294887.03671881149     
   20.000000000000000        96.381552256794166     
   70.000000000000000        1447.4107878199623     
   130.00000000000000        5160.8739834823900     
   190.00000000000000        11740.023437418629     
   250.00000000000000        21182.456446933211     
   305.00000000000000        31097.705142250819     
   355.00000000000000        42759.051198027963     
   410.00000000000000        59024.252144621540     
   467.50000000000000        75231.892808735720     
   520.00000000000000        90827.520408758748     
   581.00000000000000        113775.04628110766     
   642.00000000000000        129659.55399556657     
   693.50000000000000        145794.92680059615     
   760.00000000000000        170945.03532802634     
   837.50000000000000        193748.92281401076     
   907.50000000000000        211894.35493302497     
   970.00000000000000        227249.35735105519     
   1032.5000000000000        242358.63414901326     
   1086.5000000000000        251308.28204447249     
   1154.0000000000000        267380.54375776200     
   1237.5000000000000        276659.20601090946     
   1312.5000000000000        282481.88338663027     
   1400.0000000000000        285945.15134209726     
   1500.0000000000000        287405.96259130852     
   1600.0000000000000        288539.09975926857     
   1700.0000000000000        289168.66656140430     
   1800.0000000000000        289818.74658389646     
   1900.0000000000000        290590.30760936276     
   2000.0000000000000        291459.97761765693     
   2125.0000000000000        292799.35179400857     
   2298.5000000000000        293729.75581720140     
   2445.5000000000000        294152.04086054600     
   2645.0000000000000        294765.71856448584     
   2941.5000000000000        294885.92688762635     
   3256.0000000000000        294900.75634597929     
   3592.5000000000000        294901.37473039015     
   3895.0000000000000        294901.49530741648     
   4285.0000000000000        294903.01391738030     
   4745.0000000000000        294903.44766737689     
   5160.0000000000000        294903.45192124159     
   5647.5000000000000        294903.45726577804     
   6157.5000000000000        294903.45997135615     
   6690.0000000000000        294903.46006313857     
   7320.0000000000000        294903.46006321552     
   7982.5000000000000        294903.46006552136     
   8582.5000000000000        294903.46006555285     
   9100.0000000000000        294903.46006556024     
   9500.0000000000000        294903.46006556274     
   10025.000000000000        294903.46006556321     
   10810.000000000000        294903.46006556321     
   11545.000000000000        294903.46006556321     
   12330.000000000000        294903.46006556321     
   13045.000000000000        294903.46006556321     
   13885.000000000000        294903.46006556321     
   14735.000000000000        294903.46006556321     
   20.000000000000000        96.363983044695473     
   70.000000000000000        1446.6789743434251     
   130.00000000000000        5157.8598846910136     
   190.00000000000000        11732.737896028149     
   250.00000000000000        21169.532311805480     
   305.00000000000000        31079.733001077857     
   355.00000000000000        42736.757463826048     
   410.00000000000000        58999.173745083426     
   467.50000000000000        75205.435783072287     
   520.00000000000000        90801.280291093251     
   581.00000000000000        113750.24326021450     
   642.00000000000000        129635.65417015595     
   693.50000000000000        145771.20300253664     
   760.00000000000000        170928.27051605610     
   837.50000000000000        193739.56328604129     
   907.50000000000000        211891.58628151673     
   970.00000000000000        227252.63015649948     
   1032.5000000000000        242368.06086653747     
   1086.5000000000000        251321.33926345600     
   1154.0000000000000        267399.88466355170     
   1237.5000000000000        276681.30824568594     
   1312.5000000000000        282504.50642360002     
   1400.0000000000000        285965.60296692699     
   1500.0000000000000        287423.47366796905     
   1600.0000000000000        288554.69210690656     
   1700.0000000000000        289182.77143437683     
   1800.0000000000000        289832.16050003265     
   1900.0000000000000        290603.59957869846     
   2000.0000000000000        291473.56435140653     
   2125.0000000000000        292813.84387237224     
   2298.5000000000000        293744.62618187180     
   2445.5000000000000        294167.37866843195     
   2645.0000000000000        294781.79735895904     
   2941.5000000000000        294902.12528808648     
   3256.0000000000000        294916.96259685594     
   3592.5000000000000        294917.58028220094     
   3895.0000000000000        294917.70069048781     
   4285.0000000000000        294919.22166263242     
   4745.0000000000000        294919.65631575009     
   5160.0000000000000        294919.66057417612     
   5647.5000000000000        294919.66592970880     
   6157.5000000000000        294919.66864377900     
   6690.0000000000000        294919.66873580223     
   7320.0000000000000        294919.66873587924     
   7982.5000000000000        294919.66873819503     
   8582.5000000000000        294919.66873822664     
   9100.0000000000000        294919.66873823409     
   9500.0000000000000        294919.66873823659     
   10025.000000000000        294919.66873823706     
   10810.000000000000        294919.66873823706     
   11545.000000000000        294919.66873823706     
   12330.000000000000        294919.66873823706     
   13045.000000000000        294919.66873823706     
   13885.000000000000        294919.66873823706     
   14735.000000000000        294919.66873823706     
   20.000000000000000        96.354372521170518     
   70.000000000000000        1446.3143487542679     
   130.00000000000000        5156.4423140867311     
   190.00000000000000        11728.620621475548     
   250.00000000000000        21161.780827002363     
   305.00000000000000        31068.470653727643     
   355.00000000000000        42722.535911188024     
   410.00000000000000        58983.511282118336     
   467.50000000000000        75189.582909309203     
   520.00000000000000        90786.417875907850     
   581.00000000000000        113737.29258120057     
   642.00000000000000        129623.36235971989     
   693.50000000000000        145758.68569289331     
   760.00000000000000        170920.88860220424     
   837.50000000000000        193738.07825321276     
   907.50000000000000        211895.52455198544     
   970.00000000000000        227261.67510001204     
   1032.5000000000000        242382.45409465468     
   1086.5000000000000        251338.92778296440     
   1154.0000000000000        267422.96830456209     
   1237.5000000000000        276706.77286007657     
   1312.5000000000000        282530.39554078050     
   1400.0000000000000        285990.17684327456     
   1500.0000000000000        287445.84970829205     
   1600.0000000000000        288575.70538134681     
   1700.0000000000000        289202.66603013349     
   1800.0000000000000        289851.62811935192     
   1900.0000000000000        290623.01371699927     
   2000.0000000000000        291493.20322869258     
   2125.0000000000000        292834.29108921194     
   2298.5000000000000        293765.41965261492     
   2445.5000000000000        294188.59293647279     
   2645.0000000000000        294803.67946909543     
   2941.5000000000000        294924.11558415240     
   3256.0000000000000        294938.95873022807     
   3592.5000000000000        294939.57608782285     
   3895.0000000000000        294939.69641310634     
   4285.0000000000000        294941.21952396206     
   4745.0000000000000        294941.65496630548     
   5160.0000000000000        294941.65922853438     
   5647.5000000000000        294941.66459377465     
   6157.5000000000000        294941.66731518821     
   6690.0000000000000        294941.66740742273     
   7320.0000000000000        294941.66740749980     
   7982.5000000000000        294941.66740982427     
   8582.5000000000000        294941.66740985599     
   9100.0000000000000        294941.66740986344     
   9500.0000000000000        294941.66740986594     
   10025.000000000000        294941.66740986641     
   10810.000000000000        294941.66740986641     
   11545.000000000000        294941.66740986641     
   12330.000000000000        294941.66740986641     
   13045.000000000000        294941.66740986641     
   13885.000000000000        294941.66740986641     
   14735.000000000000        294941.66740986641     
   20.000000000000000        96.332524130529251     
   70.000000000000000        1445.5500467469976     
   130.00000000000000        5153.3744749258240     
   190.00000000000000        11720.577628045230     
   250.00000000000000        21147.014701842232     
   305.00000000000000        31047.232336749974     
   355.00000000000000        42695.334186368455     
   410.00000000000000        58952.026191828008     
   467.50000000000000        75155.662120650726     
   520.00000000000000        90752.134796879938     
   581.00000000000000        113703.96269726033     
   642.00000000000000        129590.53009649670     
   693.50000000000000        145725.32916709129     
   760.00000000000000        170897.11737597093     
   837.50000000000000        193725.25637436032     
   907.50000000000000        211892.66157876162     
   970.00000000000000        227268.03362921721     
   1032.5000000000000        242398.34077844644     
   1086.5000000000000        251360.44821133101     
   1154.0000000000000        267454.14050184243     
   1237.5000000000000        276741.88439757680     
   1312.5000000000000        282565.81064474583     
   1400.0000000000000        286022.11157740484     
   1500.0000000000000        287473.80393860978     
   1600.0000000000000        288601.01421024627     
   1700.0000000000000        289225.97172997362     
   1800.0000000000000        289873.89065458812     
   1900.0000000000000        290644.96886579739     
   2000.0000000000000        291515.51828156802     
   2125.0000000000000        292858.00728342915     
   2298.5000000000000        293789.73178788240     
   2445.5000000000000        294213.67693045060     
   2645.0000000000000        294829.98252539494     
   2941.5000000000000        294950.60699430527     
   3256.0000000000000        294965.45906942664     
   3592.5000000000000        294966.07526654354     
   3895.0000000000000        294966.19530925195     
   4285.0000000000000        294967.72232658049     
   4745.0000000000000        294968.15933329606     
   5160.0000000000000        294968.16360177094     
   5647.5000000000000        294968.16898558772     
   6157.5000000000000        294968.17172194977     
   6690.0000000000000        294968.17181459692     
   7320.0000000000000        294968.17181467399     
   7982.5000000000000        294968.17181701603     
   8582.5000000000000        294968.17181704799     
   9100.0000000000000        294968.17181705555     
   9500.0000000000000        294968.17181705812     
   10025.000000000000        294968.17181705858     
   10810.000000000000        294968.17181705858     
   11545.000000000000        294968.17181705858     
   12330.000000000000        294968.17181705858     
   13045.000000000000        294968.17181705858     
   13885.000000000000        294968.17181705858     
   14735.000000000000        294968.17181705858     
   20.000000000000000        96.312893231490278     
   70.000000000000000        1444.7952127168539     
   130.00000000000000        5150.2866253334278     
   190.00000000000000        11712.668518477620     
   250.00000000000000        21132.777329361983     
   305.00000000000000        31027.133504204630     
   355.00000000000000        42670.039384710166     
   410.00000000000000        58923.272235444951     
   467.50000000000000        75125.288370593829     
   520.00000000000000        90721.958874295451     
   581.00000000000000        113675.49425069326     
   642.00000000000000        129562.92388768267     
   693.50000000000000        145697.52766214649     
   760.00000000000000        170878.34498486502     
   837.50000000000000        193716.47362952508     
   907.50000000000000        211892.90378371996     
   970.00000000000000        227276.65253950079     
   1032.5000000000000        242415.60387064586     
   1086.5000000000000        251382.83862546395     
   1154.0000000000000        267485.36462938751     
   1237.5000000000000        276776.83726072038     
   1312.5000000000000        282601.30307432404     
   1400.0000000000000        286054.78092729353     
   1500.0000000000000        287502.92341159791     
   1600.0000000000000        288627.85138900328     
   1700.0000000000000        289251.03636581107     
   1800.0000000000000        289898.09514641791     
   1900.0000000000000        290668.98774927953     
   2000.0000000000000        291539.90112713393     
   2125.0000000000000        292883.67835549894     
   2298.5000000000000        293815.95278987713     
   2445.5000000000000        294240.58494181134     
   2645.0000000000000        294857.97870800353     
   2941.5000000000000        294978.77560285176     
   3256.0000000000000        294993.63711914833     
   3592.5000000000000        294994.25245607487     
   3895.0000000000000        294994.37228468485     
   4285.0000000000000        294995.90279221511     
   4745.0000000000000        294996.34113242361     
   5160.0000000000000        294996.34540691628     
   5647.5000000000000        294996.35080697248     
   6157.5000000000000        294996.35355587723     
   6690.0000000000000        294996.35364888026     
   7320.0000000000000        294996.35364895739     
   7982.5000000000000        294996.35365131422     
   8582.5000000000000        294996.35365134635     
   9100.0000000000000        294996.35365135391     
   9500.0000000000000        294996.35365135648     
   10025.000000000000        294996.35365135694     
   10810.000000000000        294996.35365135694     
   11545.000000000000        294996.35365135694     
   12330.000000000000        294996.35365135694     
   13045.000000000000        294996.35365135694     
   13885.000000000000        294996.35365135694     
   14735.000000000000        294996.35365135694     
   20.000000000000000        96.295791220141055     
   70.000000000000000        1444.0709367453433     
   130.00000000000000        5147.2863160289999     
   190.00000000000000        11705.062947684833     
   250.00000000000000        21119.327721170004     
   305.00000000000000        31008.479717510992     
   355.00000000000000        42646.970771779044     
   410.00000000000000        58897.524637574461     
   467.50000000000000        75098.698943331125     
   520.00000000000000        90696.163174535919     
   581.00000000000000        113651.75592098616     
   642.00000000000000        129540.05855731812     
   693.50000000000000        145674.48386376727     
   760.00000000000000        170863.55267579222     
   837.50000000000000        193711.00258595656     
   907.50000000000000        211895.86869962985     
   970.00000000000000        227287.40885705370     
   1032.5000000000000        242434.39415015446     
   1086.5000000000000        251406.39433680504     
   1154.0000000000000        267517.15656363283     
   1237.5000000000000        276812.24928137596     
   1312.5000000000000        282637.39982232091     
   1400.0000000000000        286088.71424051467     
   1500.0000000000000        287533.74873113696     
   1600.0000000000000        288656.75420448807     
   1700.0000000000000        289278.39944068732     
   1800.0000000000000        289924.78450558643     
   1900.0000000000000        290695.57403639081     
   2000.0000000000000        291566.85504168947     
   2125.0000000000000        292911.82167411037     
   2298.5000000000000        293844.60120823520     
   2445.5000000000000        294269.84345852060     
   2645.0000000000000        294888.20633945294     
   2941.5000000000000        295009.16111017112     
   3256.0000000000000        295024.03227023559     
   3592.5000000000000        295024.64704252844     
   3895.0000000000000        295024.76672435238     
   4285.0000000000000        295026.30032519222     
   4745.0000000000000        295026.73981590307     
   5160.0000000000000        295026.74409639987     
   5647.5000000000000        295026.74951059255     
   6157.5000000000000        295026.75227027462     
   6690.0000000000000        295026.75236358662     
   7320.0000000000000        295026.75236366381     
   7982.5000000000000        295026.75236603338     
   8582.5000000000000        295026.75236606563     
   9100.0000000000000        295026.75236607325     
   9500.0000000000000        295026.75236607582     
   10025.000000000000        295026.75236607628     
   10810.000000000000        295026.75236607628     
   11545.000000000000        295026.75236607628     
   12330.000000000000        295026.75236607628     
   13045.000000000000        295026.75236607628     
   13885.000000000000        295026.75236607628     
   14735.000000000000        295026.75236607628     
   20.000000000000000        96.280252537700918     
   70.000000000000000        1443.3828875975498     
   130.00000000000000        5144.4126782455251     
   190.00000000000000        11697.853079266832     
   250.00000000000000        21106.719282180857     
   305.00000000000000        30991.232142827474     
   355.00000000000000        42625.866655146085     
   410.00000000000000        58874.195734833520     
   467.50000000000000        75074.745606643366     
   520.00000000000000        90673.032352858805     
   581.00000000000000        113630.97241175325     
   642.00000000000000        129520.51715794184     
   693.50000000000000        145655.24760215671     
   760.00000000000000        170852.92582965654     
   837.50000000000000        193709.42249877466     
   907.50000000000000        211902.27382698335     
   970.00000000000000        227301.08335005102     
   1032.5000000000000        242455.46055049077     
   1086.5000000000000        251431.83638741774     
   1154.0000000000000        267550.21679183544     
   1237.5000000000000        276848.82201131526     
   1312.5000000000000        282674.93454123684     
   1400.0000000000000        286124.42533418274     
   1500.0000000000000        287566.72978261817     
   1600.0000000000000        288688.08188644395     
   1700.0000000000000        289308.38470148720     
   1800.0000000000000        289954.20473721653     
   1900.0000000000000        290724.96304761793     
   2000.0000000000000        291596.64372625505     
   2125.0000000000000        292942.70050018391     
   2298.5000000000000        293875.93048743781     
   2445.5000000000000        294301.70724385901     
   2645.0000000000000        294920.92133572750     
   2941.5000000000000        295042.01868246490     
   3256.0000000000000        295056.90079659509     
   3592.5000000000000        295057.51511778199     
   3895.0000000000000        295057.63467890484     
   4285.0000000000000        295059.17098120274     
   4745.0000000000000        295059.61146418634     
   5160.0000000000000        295059.61575063609     
   5647.5000000000000        295059.62117710855     
   6157.5000000000000        295059.62394611590     
   6690.0000000000000        295059.62403969537     
   7320.0000000000000        295059.62403977267     
   7982.5000000000000        295059.62404215336     
   8582.5000000000000        295059.62404218578     
   9100.0000000000000        295059.62404219346     
   9500.0000000000000        295059.62404219602     
   10025.000000000000        295059.62404219649     
   10810.000000000000        295059.62404219649     
   11545.000000000000        295059.62404219649     
   12330.000000000000        295059.62404219649     
   13045.000000000000        295059.62404219649     
   13885.000000000000        295059.62404219649     
   14735.000000000000        295059.62404219649     
   20.000000000000000        96.251450205277706     
   70.000000000000000        1442.3340789605390     
   130.00000000000000        5140.1005029796524     
   190.00000000000000        11686.942100186929     
   250.00000000000000        21087.105855537440     
   305.00000000000000        30963.560054515743     
   355.00000000000000        42590.731870938209     
   410.00000000000000        58833.721163501381     
   467.50000000000000        75031.349093484358     
   520.00000000000000        90629.221032549118     
   581.00000000000000        113588.26253761485     
   642.00000000000000        129477.95219264082     
   693.50000000000000        145611.26247849371     
   760.00000000000000        170820.87283156029     
   837.50000000000000        193691.66742631071     
   907.50000000000000        211897.74554832946     
   970.00000000000000        227308.98675585620     
   1032.5000000000000        242476.33651834389     
   1086.5000000000000        251460.41528428675     
   1154.0000000000000        267591.96622230421     
   1237.5000000000000        276895.79409753747     
   1312.5000000000000        282722.08032942022     
   1400.0000000000000        286167.22113825474     
   1500.0000000000000        287604.64667973889     
   1600.0000000000000        288722.77902268013     
   1700.0000000000000        289340.66155075445     
   1800.0000000000000        289985.17985379667     
   1900.0000000000000        290755.51132482255     
   2000.0000000000000        291627.62707736949     
   2125.0000000000000        292975.61264109646     
   2298.5000000000000        293909.66580145928     
   2445.5000000000000        294336.51908721554     
   2645.0000000000000        294957.43399465334     
   2941.5000000000000        295078.79257938301     
   3256.0000000000000        295093.68505768396     
   3592.5000000000000        295094.29797912121     
   3895.0000000000000        295094.41719062586     
   4285.0000000000000        295095.95896890591     
   4745.0000000000000        295096.40165285050     
   5160.0000000000000        295096.40594751079     
   5647.5000000000000        295096.41140004277     
   6157.5000000000000        295096.41419025848     
   6690.0000000000000        295096.41428441979     
   7320.0000000000000        295096.41428449709     
   7982.5000000000000        295096.41428690299     
   8582.5000000000000        295096.41428693570     
   9100.0000000000000        295096.41428694344     
   9500.0000000000000        295096.41428694606     
   10025.000000000000        295096.41428694653     
   10810.000000000000        295096.41428694653     
   11545.000000000000        295096.41428694653     
   12330.000000000000        295096.41428694653     
   13045.000000000000        295096.41428694653     
   13885.000000000000        295096.41428694653     
   14735.000000000000        295096.41428694653     
   20.000000000000000        96.225511199983245     
   70.000000000000000        1441.3456525096583     
   130.00000000000000        5135.9990330417777     
   190.00000000000000        11676.666830388169     
   250.00000000000000        21068.816221585694     
   305.00000000000000        30938.038386031432     
   355.00000000000000        42558.633537498485     
   410.00000000000000        58797.134979148694     
   467.50000000000000        74992.482086972930     
   520.00000000000000        90590.361717219435     
   581.00000000000000        113551.40773276555     
   642.00000000000000        129441.97580877737     
   693.50000000000000        145574.67641282830     
   760.00000000000000        170796.36908628143     
   837.50000000000000        193680.49105252067     
   907.50000000000000        211898.62852982691     
   970.00000000000000        227321.04271175058     
   1032.5000000000000        242499.96019179228     
   1086.5000000000000        251490.90204954849     
   1154.0000000000000        267634.28989982232     
   1237.5000000000000        276943.05937160482     
   1312.5000000000000        282769.98606666201     
   1400.0000000000000        286211.44268531888     
   1500.0000000000000        287644.55716647883     
   1600.0000000000000        288759.88796115282     
   1700.0000000000000        289375.64523784659     
   1800.0000000000000        290019.05349064636     
   1900.0000000000000        290789.11605391814     
   2000.0000000000000        291661.70801279414     
   2125.0000000000000        293011.43425603316     
   2298.5000000000000        293946.21765582234     
   2445.5000000000000        294374.00957656640     
   2645.0000000000000        294996.41090528481     
   2941.5000000000000        295118.00334002840     
   3256.0000000000000        295132.90816413076     
   3592.5000000000000        295133.51994466683     
   3895.0000000000000        295133.63886643166     
   4285.0000000000000        295135.18544774054     
   4745.0000000000000        295135.62999496784     
   5160.0000000000000        295135.63429765153     
   5647.5000000000000        295135.63977280702     
   6157.5000000000000        295135.64258076210     
   6690.0000000000000        295135.64267542213     
   7320.0000000000000        295135.64267549949     
   7982.5000000000000        295135.64267792646     
   8582.5000000000000        295135.64267795940     
   9100.0000000000000        295135.64267796726     
   9500.0000000000000        295135.64267796994     
   10025.000000000000        295135.64267797041     
   10810.000000000000        295135.64267797041     
   11545.000000000000        295135.64267797041     
   12330.000000000000        295135.64267797041     
   13045.000000000000        295135.64267797041     
   13885.000000000000        295135.64267797041     
   14735.000000000000        295135.64267797041     
   20.000000000000000        96.202744885473095     
   70.000000000000000        1440.4097016059600     
   130.00000000000000        5132.0819331427820     
   190.00000000000000        11666.970183585836     
   250.00000000000000        21051.772207487546     
   305.00000000000000        30914.582188297776     
   355.00000000000000        42529.504459388772     
   410.00000000000000        58764.608067748261     
   467.50000000000000        74958.707475196541     
   520.00000000000000        90557.369322145852     
   581.00000000000000        113520.97365921299     
   642.00000000000000        129412.51588543730     
   693.50000000000000        145544.72365244862     
   760.00000000000000        170777.61559260177     
   837.50000000000000        193674.23643019100     
   907.50000000000000        211903.66910133994     
   970.00000000000000        227336.52945211000     
   1032.5000000000000        242526.22754245222     
   1086.5000000000000        251523.57078395970     
   1154.0000000000000        267678.03804618941     
   1237.5000000000000        276991.62915167928     
   1312.5000000000000        282819.40753025695     
   1400.0000000000000        286258.02349014854     
   1500.0000000000000        287687.38909354206     
   1600.0000000000000        288800.34071794548     
   1700.0000000000000        289414.26272697659     
   1800.0000000000000        290056.78238713811     
   1900.0000000000000        290826.68719449773     
   2000.0000000000000        291699.76809189585     
   2125.0000000000000        293051.10752958251     
   2298.5000000000000        293986.56314505578     
   2445.5000000000000        294415.18801398581     
   2645.0000000000000        295038.91250026866     
   2941.5000000000000        295160.71944043058     
   3256.0000000000000        295175.63709143805     
   3592.5000000000000        295176.24808283971     
   3895.0000000000000        295176.36679596617     
   4285.0000000000000        295177.91763068945     
   4745.0000000000000        295178.36378269532     
   5160.0000000000000        295178.36809344345     
   5647.5000000000000        295178.37358826475     
   6157.5000000000000        295178.37641144346     
   6690.0000000000000        295178.37650653586     
   7320.0000000000000        295178.37650661328     
   7982.5000000000000        295178.37650905846     
   8582.5000000000000        295178.37650909164     
   9100.0000000000000        295178.37650909956     
   9500.0000000000000        295178.37650910224     
   10025.000000000000        295178.37650910270     
   10810.000000000000        295178.37650910270     
   11545.000000000000        295178.37650910270     
   12330.000000000000        295178.37650910270     
   13045.000000000000        295178.37650910270     
   13885.000000000000        295178.37650910270     
   14735.000000000000        295178.37650910270     
   20.000000000000000        96.182573601468363     
   70.000000000000000        1439.5402483672560     
   130.00000000000000        5128.4148457177207     
   190.00000000000000        11658.011267977019     
   250.00000000000000        21036.266194427517     
   305.00000000000000        30893.587769234251     
   355.00000000000000        42503.729540439133     
   410.00000000000000        58736.090463886219     
   467.50000000000000        74929.250859053544     
   520.00000000000000        90528.770813088180     
   581.00000000000000        113495.19773722212     
   642.00000000000000        129388.05899809481     
   693.50000000000000        145520.24900793703     
   760.00000000000000        170764.21515970124     
   837.50000000000000        193672.59362842812     
   907.50000000000000        211912.49133865401     
   970.00000000000000        227354.94890934983     
   1032.5000000000000        242554.48198357740     
   1086.5000000000000        251557.65910507523     
   1154.0000000000000        267722.31003329129     
   1237.5000000000000        277040.45778744732     
   1312.5000000000000        282869.35042058752     
   1400.0000000000000        286305.63678685011     
   1500.0000000000000        287731.86576185509     
   1600.0000000000000        288842.85677978775     
   1700.0000000000000        289455.26322275744     
   1800.0000000000000        290097.05711920222     
   1900.0000000000000        290866.89082959964     
   2000.0000000000000        291740.47248217562     
   2125.0000000000000        293093.28622210462     
   2298.5000000000000        294029.34777805401     
   2445.5000000000000        294458.71104016737     
   2645.0000000000000        295083.61085014686     
   2941.5000000000000        295205.61209478369     
   3256.0000000000000        295220.54336324026     
   3592.5000000000000        295221.15373526345     
   3895.0000000000000        295221.27227849007     
   4285.0000000000000        295222.82688078197     
   4745.0000000000000        295223.27442786266     
   5160.0000000000000        295223.27874635550     
   5647.5000000000000        295223.28425844252     
   6157.5000000000000        295223.28709482378     
   6690.0000000000000        295223.28719029372     
   7320.0000000000000        295223.28719037125     
   7982.5000000000000        295223.28719283227     
   8582.5000000000000        295223.28719286562     
   9100.0000000000000        295223.28719287360     
   9500.0000000000000        295223.28719287628     
   10025.000000000000        295223.28719287674     
   10810.000000000000        295223.28719287674     
   11545.000000000000        295223.28719287674     
   12330.000000000000        295223.28719287674     
   13045.000000000000        295223.28719287674     
   13885.000000000000        295223.28719287674     
   14735.000000000000        295223.28719287674     
   20.000000000000000        96.143018823505187     
   70.000000000000000        1438.1522070186711     
   130.00000000000000        5122.6668694628697     
   190.00000000000000        11643.620003135618     
   250.00000000000000        21010.437261941632     
   305.00000000000000        30857.145402366248     
   355.00000000000000        42457.305430265107     
   410.00000000000000        58682.186366090478     
   467.50000000000000        74870.882104205695     
   520.00000000000000        90469.291134011495     
   581.00000000000000        113436.94387013905     
   642.00000000000000        129329.98571213573     
   693.50000000000000        145460.26109505023     
   760.00000000000000        170722.19075842391     
   837.50000000000000        193651.62510701493     
   907.50000000000000        211910.82798348056     
   970.00000000000000        227371.31117879204     
   1032.5000000000000        242589.55748280432     
   1086.5000000000000        251603.83391900032     
   1154.0000000000000        267787.52064560930     
   1237.5000000000000        277113.30986642913     
   1312.5000000000000        282942.64470788714     
   1400.0000000000000        286372.82402845705     
   1500.0000000000000        287792.71958581824     
   1600.0000000000000        288899.44581089483     
   1700.0000000000000        289508.72400934470     
   1800.0000000000000        290148.72361662064     
   1900.0000000000000        290917.94696506788     
   2000.0000000000000        291792.19953193469     
   2125.0000000000000        293147.80168506509     
   2298.5000000000000        294085.05177522346     
   2445.5000000000000        294515.97216757637     
   2645.0000000000000        295143.33304936939     
   2941.5000000000000        295265.71201162494     
   3256.0000000000000        295280.65956243948     
   3592.5000000000000        295281.26791396545     
   3895.0000000000000        295281.38595030777     
   4285.0000000000000        295282.94851130247     
   4745.0000000000000        295283.39929596102     
   5160.0000000000000        295283.40362669982     
   5647.5000000000000        295283.40917709080     
   6157.5000000000000        295283.41204501403     
   6690.0000000000000        295283.41214134381     
   7320.0000000000000        295283.41214142140     
   7982.5000000000000        295283.41214392032     
   8582.5000000000000        295283.41214395413     
   9100.0000000000000        295283.41214396222     
   9500.0000000000000        295283.41214396496     
   10025.000000000000        295283.41214396548     
   10810.000000000000        295283.41214396548     
   11545.000000000000        295283.41214396548     
   12330.000000000000        295283.41214396548     
   13045.000000000000        295283.41214396548     
   13885.000000000000        295283.41214396548     
   14735.000000000000        295283.41214396548     
   20.000000000000000        96.108183984727063     
   70.000000000000000        1436.8502298463677     
   130.00000000000000        5117.2351178096033     
   190.00000000000000        11630.134553923986     
   250.00000000000000        20986.443520914429     
   305.00000000000000        30823.633246719764     
   355.00000000000000        42415.133960297127     
   410.00000000000000        58634.195623506937     
   467.50000000000000        74819.965316236514     
   520.00000000000000        90418.594445596507     
   581.00000000000000        113389.27720687656     
   642.00000000000000        129283.39403012308     
   693.50000000000000        145412.54062030034     
   760.00000000000000        170691.23264470621     
   837.50000000000000        193639.45203825610     
   907.50000000000000        211915.75201612612     
   970.00000000000000        227392.18277366491     
   1032.5000000000000        242627.02130570385     
   1086.5000000000000        251651.16651927787     
   1154.0000000000000        267851.90038649115     
   1237.5000000000000        277184.80266258278     
   1312.5000000000000        283015.13207454217     
   1400.0000000000000        286440.49981271656     
   1500.0000000000000        287854.82420348004     
   1600.0000000000000        288957.87579496973     
   1700.0000000000000        289564.41018713056     
   1800.0000000000000        290202.94849417609     
   1900.0000000000000        290971.82066907809     
   2000.0000000000000        291846.75313273160     
   2125.0000000000000        293204.87512817571     
   2298.5000000000000        294143.19538469391     
   2445.5000000000000        294575.48214395513     
   2645.0000000000000        295205.00819749740     
   2941.5000000000000        295327.72744512628     
   3256.0000000000000        295342.69251474697     
   3592.5000000000000        295343.29937979847     
   3895.0000000000000        295343.41703396593     
   4285.0000000000000        295344.98662859167     
   4745.0000000000000        295345.44015632686     
   5160.0000000000000        295345.44449869427     
   5647.5000000000000        295345.45008237957     
   6157.5000000000000        295345.45297668996     
   6690.0000000000000        295345.45307375770     
   7320.0000000000000        295345.45307383535     
   7982.5000000000000        295345.45307636604     
   8582.5000000000000        295345.45307640021     
   9100.0000000000000        295345.45307640842     
   9500.0000000000000        295345.45307641121     
   10025.000000000000        295345.45307641174     
   10810.000000000000        295345.45307641174     
   11545.000000000000        295345.45307641174     
   12330.000000000000        295345.45307641174     
   13045.000000000000        295345.45307641174     
   13885.000000000000        295345.45307641174     
   14735.000000000000        295345.45307641174     
   20.000000000000000        96.077815116155591     
   70.000000000000000        1435.6377908797515     
   130.00000000000000        5112.1378360060826     
   190.00000000000000        11617.649957123072     
   250.00000000000000        20964.515225704235     
   305.00000000000000        30793.405724365344     
   355.00000000000000        42377.551744942495     
   410.00000000000000        58592.170361916367     
   467.50000000000000        74776.179379084322     
   520.00000000000000        90375.902731051639     
   581.00000000000000        113350.44214904090     
   642.00000000000000        129245.96835600599     
   693.50000000000000        145374.41641578556     
   760.00000000000000        170668.95853152807     
   837.50000000000000        193634.61533817390     
   907.50000000000000        211926.68369269988     
   970.00000000000000        227417.73486738873     
   1032.5000000000000        242667.71672690759     
   1086.5000000000000        251700.87184740751     
   1154.0000000000000        267917.26007395971     
   1237.5000000000000        277256.97046288545     
   1312.5000000000000        283088.63871008210     
   1400.0000000000000        286510.26060698490     
   1500.0000000000000        287919.84316810447     
   1600.0000000000000        289019.81610416510     
   1700.0000000000000        289624.03230837802     
   1800.0000000000000        290261.39938822167     
   1900.0000000000000        291030.08209092141     
   2000.0000000000000        291905.70965914184     
   2125.0000000000000        293266.13181648136     
   2298.5000000000000        294205.41810246411     
   2445.5000000000000        294638.90669233212     
   2645.0000000000000        295270.34258630167     
   2941.5000000000000        295393.36985212640     
   3256.0000000000000        295408.35338400054     
   3592.5000000000000        295408.95918281033     
   3895.0000000000000        295409.07655172987     
   4285.0000000000000        295410.65233415831     
   4745.0000000000000        295411.10821351473     
   5160.0000000000000        295411.11256729526     
   5647.5000000000000        295411.11817982869     
   6157.5000000000000        295411.12109673681     
   6690.0000000000000        295411.12119444134     
   7320.0000000000000        295411.12119451910     
   7982.5000000000000        295411.12119707721     
   8582.5000000000000        295411.12119711173     
   9100.0000000000000        295411.12119712000     
   9500.0000000000000        295411.12119712285     
   10025.000000000000        295411.12119712337     
   10810.000000000000        295411.12119712337     
   11545.000000000000        295411.12119712337     
   12330.000000000000        295411.12119712337     
   13045.000000000000        295411.12119712337     
   13885.000000000000        295411.12119712337     
   14735.000000000000        295411.12119712337     
   20.000000000000000        96.051683868192896     
   70.000000000000000        1434.5252070535682     
   130.00000000000000        5107.4305523341263     
   190.00000000000000        11606.282950246175     
   250.00000000000000        20944.839708230797     
   305.00000000000000        30766.664806840548     
   355.00000000000000        42344.730688209900     
   410.00000000000000        58556.130558522294     
   467.50000000000000        74739.346638741845     
   520.00000000000000        90340.685795129553     
   581.00000000000000        113319.46284941045     
   642.00000000000000        129216.47986808167     
   693.50000000000000        145344.36881891673     
   760.00000000000000        170653.40878054593     
   837.50000000000000        193634.89471864933     
   907.50000000000000        211941.21953928244     
   970.00000000000000        227445.46144229191     
   1032.5000000000000        242709.07335740319     
   1086.5000000000000        251750.33830338155     
   1154.0000000000000        267980.86438994471     
   1237.5000000000000        277326.87798793841     
   1312.5000000000000        283160.01783978188     
   1400.0000000000000        286578.82958884211     
   1500.0000000000000        287984.49090705009     
   1600.0000000000000        289081.95743331488     
   1700.0000000000000        289684.27555808012     
   1800.0000000000000        290320.73651749454     
   1900.0000000000000        291089.34131101967     
   2000.0000000000000        291965.63429734693     
   2125.0000000000000        293328.12548859429     
   2298.5000000000000        294268.26772248623     
   2445.5000000000000        294702.81177232112     
   2645.0000000000000        295335.92789420212     
   2941.5000000000000        295459.23081848328     
   3256.0000000000000        295474.23230755219     
   3592.5000000000000        295474.83739097463     
   3895.0000000000000        295474.95455596264     
   4285.0000000000000        295476.53577407898     
   4745.0000000000000        295476.99369057355     
   5160.0000000000000        295476.99805505027     
   5647.5000000000000        295477.00369271822     
   6157.5000000000000        295477.00662919495     
   6690.0000000000000        295477.00672745361     
   7320.0000000000000        295477.00672753149     
   7982.5000000000000        295477.00673011341     
   8582.5000000000000        295477.00673014822     
   9100.0000000000000        295477.00673015660     
   9500.0000000000000        295477.00673015945     
   10025.000000000000        295477.00673015998     
   10810.000000000000        295477.00673015998     
   11545.000000000000        295477.00673015998     
   12330.000000000000        295477.00673015998     
   13045.000000000000        295477.00673015998     
   13885.000000000000        295477.00673015998     
   14735.000000000000        295477.00673015998     
